-1.4509e-07	-9.8637e-08	-7.6732e-08	-6.4391e-08	-1.0427e-07	-1.6838e-08	-5.6551e-08	9.001e-09	-4.6598e-08	6.0517e-08	1.1851e-08	-5.855e-08	5.1366e-08	-3.9459e-08	8.7281e-09	-6.6569e-09	-1.2138e-08	-3.6105e-08	-2.3699e-08	2.1869e-08	1.1572e-07	-1.2013e-08	-3.8499e-08	-2.103e-08	8.2448e-08	1.8223e-08	6.0486e-08	-6.3107e-08	3.8719e-08	2.189e-08	-4.6339e-08	1.9377e-08	9.7463e-08	9.9671e-08	6.6995e-08	-6.0344e-08	-1.0445e-07	3.2952e-08	1.5177e-07	1.4137e-07	3.2774e-07	2.0271e-08
-1.3804e-07	-9.6012e-08	-7.0817e-08	-5.7317e-08	-9.6607e-08	-1.652e-08	-5.1503e-08	5.9364e-09	-4.7535e-08	5.573e-08	1.1974e-08	-5.5589e-08	5.0332e-08	-3.6543e-08	1.0566e-08	-3.1711e-09	-1.0737e-08	-2.2438e-08	-2.6844e-08	1.696e-08	1.1129e-07	-1.511e-08	-3.9417e-08	-2.1196e-08	8.1387e-08	1.9041e-08	5.9031e-08	-6.1496e-08	3.9769e-08	2.3246e-08	-4.8371e-08	2.1403e-08	8.9179e-08	9.7971e-08	6.1219e-08	-5.8571e-08	-9.9834e-08	3.596e-08	1.4818e-07	1.3338e-07	3.1971e-07	2.3565e-08
-1.3086e-07	-9.3303e-08	-6.4807e-08	-5.0154e-08	-8.8851e-08	-1.6223e-08	-4.6387e-08	2.8732e-09	-4.8428e-08	5.0884e-08	1.2081e-08	-5.2641e-08	4.9222e-08	-3.3626e-08	1.2374e-08	3.1771e-10	-9.3349e-09	-8.9221e-09	-2.9975e-08	1.1983e-08	1.0671e-07	-1.8183e-08	-4.0304e-08	-2.1325e-08	8.0206e-08	1.9841e-08	5.7501e-08	-5.9858e-08	4.0814e-08	2.4584e-08	-5.0356e-08	2.3409e-08	8.0823e-08	9.6172e-08	5.5384e-08	-5.669e-08	-9.5043e-08	3.8937e-08	1.4443e-07	1.2535e-07	3.1137e-07	2.6866e-08
-1.2356e-07	-9.0513e-08	-5.8712e-08	-4.2914e-08	-8.1012e-08	-1.5948e-08	-4.1211e-08	-1.8187e-10	-4.9272e-08	4.5987e-08	1.2173e-08	-4.9715e-08	4.8033e-08	-3.0717e-08	1.4146e-08	3.802e-09	-7.9348e-09	4.4163e-09	-3.3086e-08	6.9473e-09	1.02e-07	-2.1224e-08	-4.1159e-08	-2.1415e-08	7.8903e-08	2.0621e-08	5.5897e-08	-5.8194e-08	4.1852e-08	2.5898e-08	-5.2285e-08	2.5389e-08	7.2416e-08	9.4275e-08	4.9501e-08	-5.47e-08	-9.008e-08	4.1878e-08	1.4051e-07	1.1728e-07	3.0273e-07	3.0164e-08
-1.1615e-07	-8.7647e-08	-5.2539e-08	-3.5607e-08	-7.3102e-08	-1.5696e-08	-3.5983e-08	-3.2221e-09	-5.0063e-08	4.1049e-08	1.225e-08	-4.6818e-08	4.6764e-08	-2.7819e-08	1.5877e-08	7.2743e-09	-6.5394e-09	1.7549e-08	-3.6167e-08	1.8638e-09	9.715e-08	-2.4226e-08	-4.1979e-08	-2.1461e-08	7.7474e-08	2.1378e-08	5.4217e-08	-5.6509e-08	4.2881e-08	2.7186e-08	-5.4153e-08	2.734e-08	6.3972e-08	9.2282e-08	4.3582e-08	-5.2601e-08	-8.4949e-08	4.4775e-08	1.3644e-07	1.092e-07	2.938e-07	3.3452e-08
-1.0863e-07	-8.4709e-08	-4.6299e-08	-2.8244e-08	-6.5134e-08	-1.5468e-08	-3.071e-08	-6.2408e-09	-5.0798e-08	3.6078e-08	1.2311e-08	-4.3957e-08	4.5414e-08	-2.4941e-08	1.7561e-08	1.0727e-08	-5.1516e-09	3.0449e-08	-3.9212e-08	-3.2578e-09	9.217e-08	-2.718e-08	-4.2763e-08	-2.1463e-08	7.5916e-08	2.2111e-08	5.2462e-08	-5.4806e-08	4.39e-08	2.8445e-08	-5.5951e-08	2.9255e-08	5.5511e-08	9.0194e-08	3.7637e-08	-5.0395e-08	-7.9655e-08	4.762e-08	1.322e-07	1.0112e-07	2.8459e-07	3.6721e-08
-1.0103e-07	-8.1704e-08	-4e-08	-2.0836e-08	-5.712e-08	-1.5265e-08	-2.5401e-08	-9.2314e-09	-5.1474e-08	3.1084e-08	1.2358e-08	-4.114e-08	4.3981e-08	-2.2086e-08	1.9194e-08	1.4154e-08	-3.7738e-09	4.3092e-08	-4.2211e-08	-8.4073e-09	8.7063e-08	-3.0081e-08	-4.3508e-08	-2.1418e-08	7.4226e-08	2.2816e-08	5.0633e-08	-5.3087e-08	4.4905e-08	2.9671e-08	-5.7671e-08	3.1131e-08	4.7049e-08	8.8013e-08	3.1677e-08	-4.8082e-08	-7.4205e-08	5.0407e-08	1.2781e-07	9.3057e-08	2.751e-07	3.9962e-08
-9.3354e-08	-7.8636e-08	-3.3652e-08	-1.3395e-08	-4.9074e-08	-1.5088e-08	-2.0063e-08	-1.2187e-08	-5.2086e-08	2.6074e-08	1.239e-08	-3.8373e-08	4.2464e-08	-1.9261e-08	2.0772e-08	1.7546e-08	-2.4088e-09	5.5452e-08	-4.5158e-08	-1.3575e-08	8.1835e-08	-3.2922e-08	-4.4213e-08	-2.1323e-08	7.2404e-08	2.3493e-08	4.8729e-08	-5.1357e-08	4.5896e-08	3.0863e-08	-5.9308e-08	3.2963e-08	3.8603e-08	8.5741e-08	2.5714e-08	-4.5665e-08	-6.8603e-08	5.3128e-08	1.2327e-07	8.5021e-08	2.6535e-07	4.3169e-08
-8.5603e-08	-7.551e-08	-2.7265e-08	-5.9319e-09	-4.1007e-08	-1.4937e-08	-1.4705e-08	-1.5102e-08	-5.2632e-08	2.1057e-08	1.2407e-08	-3.5663e-08	4.0863e-08	-1.6472e-08	2.229e-08	2.0898e-08	-1.0587e-09	6.7507e-08	-4.8044e-08	-1.8749e-08	7.649e-08	-3.5696e-08	-4.4876e-08	-2.1176e-08	7.0446e-08	2.4139e-08	4.6751e-08	-4.9619e-08	4.687e-08	3.2017e-08	-6.0853e-08	3.4746e-08	3.0189e-08	8.338e-08	1.9758e-08	-4.3145e-08	-6.2858e-08	5.5777e-08	1.1858e-07	7.7027e-08	2.5533e-07	4.6333e-08
-7.7793e-08	-7.2331e-08	-2.0846e-08	1.5432e-09	-3.2933e-08	-1.4813e-08	-9.3337e-09	-1.797e-08	-5.3109e-08	1.6041e-08	1.2409e-08	-3.3017e-08	3.9176e-08	-1.3723e-08	2.3744e-08	2.4202e-08	2.7414e-10	7.9235e-08	-5.0862e-08	-2.3921e-08	7.1032e-08	-3.8399e-08	-4.5496e-08	-2.0976e-08	6.8351e-08	2.4753e-08	4.4699e-08	-4.7874e-08	4.7825e-08	3.313e-08	-6.23e-08	3.6478e-08	2.1824e-08	8.0932e-08	1.382e-08	-4.0525e-08	-5.6974e-08	5.8344e-08	1.1374e-07	6.9087e-08	2.4507e-07	4.9448e-08
-6.9934e-08	-6.9103e-08	-1.4406e-08	9.0191e-09	-2.4863e-08	-1.4718e-08	-3.9582e-09	-2.0785e-08	-5.3513e-08	1.1035e-08	1.2396e-08	-3.044e-08	3.7404e-08	-1.1019e-08	2.513e-08	2.7453e-08	1.5876e-09	9.0616e-08	-5.3605e-08	-2.9081e-08	6.5466e-08	-4.1025e-08	-4.6071e-08	-2.0721e-08	6.6119e-08	2.5333e-08	4.2575e-08	-4.6127e-08	4.876e-08	3.42e-08	-6.3641e-08	3.8154e-08	1.3522e-08	7.84e-08	7.9113e-09	-3.7808e-08	-5.096e-08	6.0825e-08	1.0877e-07	6.1216e-08	2.3458e-07	5.2507e-08
-6.2034e-08	-6.5832e-08	-7.9521e-09	1.6485e-08	-1.681e-08	-1.465e-08	1.4142e-09	-2.3541e-08	-5.3843e-08	6.0461e-09	1.2368e-08	-2.7937e-08	3.5546e-08	-8.3645e-09	2.6445e-08	3.0643e-08	2.8797e-09	1.0163e-07	-5.6266e-08	-3.4217e-08	5.9798e-08	-4.357e-08	-4.66e-08	-2.041e-08	6.3749e-08	2.5877e-08	4.0378e-08	-4.438e-08	4.9674e-08	3.5226e-08	-6.4869e-08	3.977e-08	5.299e-09	7.5786e-08	2.0408e-09	-3.4995e-08	-4.4822e-08	6.321e-08	1.0366e-07	5.3423e-08	2.2386e-07	5.5504e-08
-5.4105e-08	-6.2523e-08	-1.4942e-09	2.3931e-08	-8.7855e-09	-1.4611e-08	6.7757e-09	-2.6232e-08	-5.4094e-08	1.0815e-09	1.2325e-08	-2.5515e-08	3.3602e-08	-5.7646e-09	2.7687e-08	3.3767e-08	4.1488e-09	1.1226e-07	-5.8838e-08	-3.9321e-08	5.4032e-08	-4.603e-08	-4.7082e-08	-2.004e-08	6.124e-08	2.6384e-08	3.8111e-08	-4.2635e-08	5.0563e-08	3.6204e-08	-6.5979e-08	4.1324e-08	-2.8316e-09	7.3094e-08	-3.7813e-09	-3.2091e-08	-3.8568e-08	6.5495e-08	9.8416e-08	4.5719e-08	2.1292e-07	5.8433e-08
-4.6156e-08	-5.9179e-08	4.9597e-09	3.1346e-08	-8.0112e-10	-1.46e-08	1.2119e-08	-2.8854e-08	-5.4265e-08	-3.8514e-09	1.2268e-08	-2.3177e-08	3.1572e-08	-3.2229e-09	2.8852e-08	3.6819e-08	5.3931e-09	1.225e-07	-6.1314e-08	-4.4383e-08	4.8174e-08	-4.8401e-08	-4.7517e-08	-1.9612e-08	5.8593e-08	2.6852e-08	3.5775e-08	-4.0896e-08	5.1428e-08	3.7133e-08	-6.6964e-08	4.2812e-08	-1.0856e-08	7.0326e-08	-9.5456e-09	-2.9099e-08	-3.2207e-08	6.7671e-08	9.3052e-08	3.8115e-08	2.0178e-07	6.129e-08
-3.8197e-08	-5.5807e-08	1.1401e-08	3.872e-08	7.1321e-09	-1.4618e-08	1.7436e-08	-3.1401e-08	-5.4354e-08	-8.7456e-09	1.2196e-08	-2.0928e-08	2.9458e-08	-7.4341e-10	2.9939e-08	3.9793e-08	6.6112e-09	1.3232e-07	-6.3688e-08	-4.9394e-08	4.2229e-08	-5.0681e-08	-4.7902e-08	-1.9123e-08	5.5807e-08	2.7281e-08	3.337e-08	-3.9165e-08	5.2267e-08	3.8012e-08	-6.7818e-08	4.4231e-08	-1.8763e-08	6.7484e-08	-1.5243e-08	-2.6023e-08	-2.5746e-08	6.9734e-08	8.7567e-08	3.0619e-08	1.9045e-07	6.4069e-08
-3.0236e-08	-5.2411e-08	1.7823e-08	4.6044e-08	1.5003e-08	-1.4665e-08	2.272e-08	-3.3869e-08	-5.4357e-08	-1.3595e-08	1.2109e-08	-1.8771e-08	2.7259e-08	1.6706e-09	3.0946e-08	4.2685e-08	7.8018e-09	1.4172e-07	-6.5955e-08	-5.4344e-08	3.6203e-08	-5.2868e-08	-4.8238e-08	-1.8574e-08	5.2884e-08	2.7668e-08	3.0898e-08	-3.7444e-08	5.3078e-08	3.8837e-08	-6.8534e-08	4.5578e-08	-2.6539e-08	6.4574e-08	-2.0866e-08	-2.2867e-08	-1.9193e-08	7.1675e-08	8.1968e-08	2.324e-08	1.7894e-07	6.6765e-08
-2.2283e-08	-4.8997e-08	2.4217e-08	5.3309e-08	2.2802e-08	-1.474e-08	2.7965e-08	-3.6254e-08	-5.4275e-08	-1.8392e-08	1.2008e-08	-1.6711e-08	2.4976e-08	4.0158e-09	3.1871e-08	4.549e-08	8.9638e-09	1.5068e-07	-6.8109e-08	-5.9224e-08	3.0102e-08	-5.4959e-08	-4.8525e-08	-1.7965e-08	4.9825e-08	2.8013e-08	2.8362e-08	-3.5735e-08	5.386e-08	3.961e-08	-6.9108e-08	4.6852e-08	-3.4175e-08	6.1597e-08	-2.6405e-08	-1.9634e-08	-1.2557e-08	7.3492e-08	7.6261e-08	1.5986e-08	1.6725e-07	6.9374e-08
-1.4348e-08	-4.5567e-08	3.0575e-08	6.0504e-08	3.0519e-08	-1.4843e-08	3.3162e-08	-3.855e-08	-5.4104e-08	-2.3132e-08	1.1892e-08	-1.4749e-08	2.2612e-08	6.2894e-09	3.2715e-08	4.8204e-08	1.0096e-08	1.592e-07	-7.0144e-08	-6.4026e-08	2.3929e-08	-5.6954e-08	-4.8761e-08	-1.7294e-08	4.6631e-08	2.8316e-08	2.5762e-08	-3.404e-08	5.4613e-08	4.0327e-08	-6.9534e-08	4.805e-08	-4.166e-08	5.8557e-08	-3.1853e-08	-1.633e-08	-5.8457e-09	7.5176e-08	7.045e-08	8.8637e-09	1.5542e-07	7.1893e-08
-6.4384e-09	-4.2129e-08	3.6891e-08	6.7622e-08	3.8143e-08	-1.4973e-08	3.8306e-08	-4.0756e-08	-5.3844e-08	-2.7809e-08	1.1762e-08	-1.2889e-08	2.0166e-08	8.489e-09	3.3475e-08	5.0822e-08	1.1198e-08	1.6727e-07	-7.2057e-08	-6.8742e-08	1.7693e-08	-5.8853e-08	-4.8946e-08	-1.6562e-08	4.3304e-08	2.8574e-08	2.31e-08	-3.2362e-08	5.5336e-08	4.0988e-08	-6.9809e-08	4.917e-08	-4.8986e-08	5.5458e-08	-3.7204e-08	-1.296e-08	9.3108e-10	7.6725e-08	6.4543e-08	1.8783e-09	1.4343e-07	7.4318e-08
1.4367e-09	-3.8686e-08	4.3158e-08	7.4655e-08	4.5667e-08	-1.513e-08	4.339e-08	-4.2867e-08	-5.3494e-08	-3.2417e-08	1.1617e-08	-1.1133e-08	1.764e-08	1.0612e-08	3.4154e-08	5.334e-08	1.2269e-08	1.7488e-07	-7.3842e-08	-7.3364e-08	1.1397e-08	-6.0654e-08	-4.9081e-08	-1.577e-08	3.9847e-08	2.8788e-08	2.0379e-08	-3.0701e-08	5.6028e-08	4.1592e-08	-6.9926e-08	5.0211e-08	-5.6144e-08	5.2304e-08	-4.245e-08	-9.5274e-09	7.7651e-09	7.8133e-08	5.8544e-08	-4.9643e-09	1.3132e-07	7.6644e-08
9.269e-09	-3.5243e-08	4.937e-08	8.1593e-08	5.3081e-08	-1.5312e-08	4.8409e-08	-4.4881e-08	-5.3052e-08	-3.6951e-08	1.1458e-08	-9.4817e-09	1.5036e-08	1.2657e-08	3.475e-08	5.5756e-08	1.3309e-08	1.8204e-07	-7.5497e-08	-7.7884e-08	5.0475e-09	-6.2358e-08	-4.9166e-08	-1.4918e-08	3.6261e-08	2.8957e-08	1.7601e-08	-2.9059e-08	5.6688e-08	4.2138e-08	-6.9884e-08	5.117e-08	-6.3127e-08	4.9097e-08	-4.7585e-08	-6.0379e-09	1.4648e-08	7.9396e-08	5.246e-08	-1.166e-08	1.1908e-07	7.887e-08
1.7051e-08	-3.1804e-08	5.5521e-08	8.8429e-08	6.0379e-08	-1.552e-08	5.3355e-08	-4.6794e-08	-5.2518e-08	-4.1408e-08	1.1285e-08	-7.9366e-09	1.2357e-08	1.4622e-08	3.5265e-08	5.8065e-08	1.4316e-08	1.8874e-07	-7.7016e-08	-8.2295e-08	-1.3498e-09	-6.3967e-08	-4.92e-08	-1.4007e-08	3.2549e-08	2.908e-08	1.4767e-08	-2.7438e-08	5.7316e-08	4.2626e-08	-6.9677e-08	5.2048e-08	-6.9929e-08	4.5841e-08	-5.2604e-08	-2.4965e-09	2.157e-08	8.0511e-08	4.6297e-08	-1.8204e-08	1.0674e-07	8.0992e-08
2.4774e-08	-2.8374e-08	6.1604e-08	9.5157e-08	6.7551e-08	-1.5752e-08	5.8225e-08	-4.8605e-08	-5.1891e-08	-4.5781e-08	1.1097e-08	-6.4983e-09	9.6028e-09	1.6507e-08	3.5701e-08	6.0267e-08	1.5291e-08	1.9497e-07	-7.8399e-08	-8.6591e-08	-7.7893e-09	-6.5481e-08	-4.9184e-08	-1.3038e-08	2.8715e-08	2.9157e-08	1.188e-08	-2.5839e-08	5.7912e-08	4.3055e-08	-6.9304e-08	5.2841e-08	-7.6545e-08	4.2541e-08	-5.7502e-08	1.0917e-09	2.8522e-08	8.1475e-08	4.0061e-08	-2.4594e-08	9.4301e-08	8.3006e-08
3.2431e-08	-2.4956e-08	6.7615e-08	1.0177e-07	7.4592e-08	-1.6006e-08	6.3012e-08	-5.0312e-08	-5.1172e-08	-5.0067e-08	1.0894e-08	-5.1671e-09	6.7769e-09	1.8309e-08	3.6059e-08	6.2357e-08	1.6235e-08	2.0075e-07	-7.964e-08	-9.0764e-08	-1.4266e-08	-6.6903e-08	-4.912e-08	-1.2012e-08	2.4762e-08	2.9186e-08	8.9419e-09	-2.4263e-08	5.8475e-08	4.3426e-08	-6.8763e-08	5.3551e-08	-8.297e-08	3.92e-08	-6.2274e-08	4.7214e-09	3.5497e-08	8.2286e-08	3.3758e-08	-3.0828e-08	8.1779e-08	8.4911e-08
4.0016e-08	-2.1557e-08	7.3548e-08	1.0826e-07	8.1495e-08	-1.6282e-08	6.7711e-08	-5.1914e-08	-5.0361e-08	-5.4262e-08	1.0677e-08	-3.9427e-09	3.8815e-09	2.0029e-08	3.6341e-08	6.4334e-08	1.7146e-08	2.0607e-07	-8.0739e-08	-9.4809e-08	-2.0773e-08	-6.8234e-08	-4.9006e-08	-1.0931e-08	2.0693e-08	2.9169e-08	5.9559e-09	-2.2711e-08	5.9005e-08	4.3737e-08	-6.805e-08	5.4176e-08	-8.92e-08	3.5821e-08	-6.6916e-08	8.3873e-09	4.2485e-08	8.2942e-08	2.7395e-08	-3.6903e-08	6.9185e-08	8.6704e-08
4.752e-08	-1.8178e-08	7.9399e-08	1.1462e-07	8.8254e-08	-1.6578e-08	7.2318e-08	-5.3409e-08	-4.9458e-08	-5.8363e-08	1.0444e-08	-2.8246e-09	9.1879e-10	2.1667e-08	3.655e-08	6.6197e-08	1.8024e-08	2.1093e-07	-8.1694e-08	-9.872e-08	-2.7306e-08	-6.9477e-08	-4.8845e-08	-9.7963e-09	1.6512e-08	2.9105e-08	2.9242e-09	-2.1183e-08	5.9502e-08	4.399e-08	-6.7166e-08	5.4716e-08	-9.5233e-08	3.2409e-08	-7.1425e-08	1.2084e-08	4.9478e-08	8.3441e-08	2.0978e-08	-4.2818e-08	5.6532e-08	8.8383e-08
5.4939e-08	-1.4825e-08	8.5163e-08	1.2085e-07	9.4863e-08	-1.6893e-08	7.6828e-08	-5.4797e-08	-4.8464e-08	-6.2365e-08	1.0197e-08	-1.8117e-09	-2.1085e-09	2.3222e-08	3.6689e-08	6.7944e-08	1.8871e-08	2.1536e-07	-8.2504e-08	-1.0249e-07	-3.3859e-08	-7.0634e-08	-4.8638e-08	-8.6103e-09	1.2223e-08	2.8993e-08	-1.5079e-10	-1.968e-08	5.9965e-08	4.4183e-08	-6.6109e-08	5.517e-08	-1.0107e-07	2.8967e-08	-7.5797e-08	1.5807e-08	5.6466e-08	8.3782e-08	1.4513e-08	-4.8572e-08	4.3832e-08	8.9946e-08
6.2264e-08	-1.15e-08	9.0837e-08	1.2693e-07	1.0132e-07	-1.7225e-08	8.1238e-08	-5.6077e-08	-4.7379e-08	-6.6267e-08	9.9349e-09	-9.0256e-10	-5.1977e-09	2.4695e-08	3.6762e-08	6.9573e-08	1.9687e-08	2.1934e-07	-8.3166e-08	-1.0612e-07	-4.0427e-08	-7.1709e-08	-4.8385e-08	-7.3749e-09	7.8299e-09	2.8834e-08	-3.2663e-09	-1.8203e-08	6.0397e-08	4.4318e-08	-6.4879e-08	5.5538e-08	-1.067e-07	2.5499e-08	-8.0031e-08	1.9549e-08	6.3442e-08	8.3967e-08	8.0061e-09	-5.4166e-08	3.1095e-08	9.139e-08
6.9492e-08	-8.2082e-09	9.6416e-08	1.3288e-07	1.0762e-07	-1.7571e-08	8.5542e-08	-5.725e-08	-4.6206e-08	-7.0065e-08	9.6572e-09	-9.5397e-11	-8.3459e-09	2.6086e-08	3.6772e-08	7.1085e-08	2.0471e-08	2.2289e-07	-8.3682e-08	-1.096e-07	-4.7004e-08	-7.2705e-08	-4.8087e-08	-6.0926e-09	3.3375e-09	2.8627e-08	-6.4197e-09	-1.6752e-08	6.0795e-08	4.4395e-08	-6.3478e-08	5.582e-08	-1.1213e-07	2.2008e-08	-8.4124e-08	2.3307e-08	7.0397e-08	8.3994e-08	1.4636e-09	-5.96e-08	1.8335e-08	9.2714e-08
7.6615e-08	-4.9523e-09	1.019e-07	1.3867e-07	1.1375e-07	-1.7932e-08	8.9739e-08	-5.8316e-08	-4.4945e-08	-7.3756e-08	9.3639e-09	6.1196e-10	-1.155e-08	2.7397e-08	3.6723e-08	7.2478e-08	2.1225e-08	2.2603e-07	-8.4051e-08	-1.1293e-07	-5.3586e-08	-7.3626e-08	-4.7747e-08	-4.7657e-09	-1.2498e-09	2.8373e-08	-9.6082e-09	-1.5327e-08	6.1161e-08	4.4415e-08	-6.1905e-08	5.6017e-08	-1.1736e-07	1.8499e-08	-8.8074e-08	2.7075e-08	7.7323e-08	8.3866e-08	-5.1084e-09	-6.4874e-08	5.5607e-09	9.3917e-08
8.3629e-08	-1.7359e-09	1.0728e-07	1.4432e-07	1.1972e-07	-1.8303e-08	9.3824e-08	-5.9275e-08	-4.3599e-08	-7.7339e-08	9.0547e-09	1.222e-09	-1.4808e-08	2.8628e-08	3.662e-08	7.3752e-08	2.1948e-08	2.2875e-07	-8.4274e-08	-1.161e-07	-6.0166e-08	-7.4474e-08	-4.7364e-08	-3.397e-09	-5.9273e-09	2.8071e-08	-1.2829e-08	-1.3928e-08	6.1496e-08	4.4378e-08	-6.0164e-08	5.6128e-08	-1.2239e-07	1.4975e-08	-9.1881e-08	3.0847e-08	8.4212e-08	8.3582e-08	-1.1704e-08	-6.9989e-08	-7.2152e-09	9.4996e-08
9.0529e-08	1.438e-09	1.1256e-07	1.498e-07	1.2553e-07	-1.8685e-08	9.7794e-08	-6.013e-08	-4.217e-08	-8.0811e-08	8.7294e-09	1.7376e-09	-1.8115e-08	2.9782e-08	3.6467e-08	7.4908e-08	2.2642e-08	2.3108e-07	-8.435e-08	-1.1912e-07	-6.674e-08	-7.5254e-08	-4.6941e-08	-1.9894e-09	-1.069e-08	2.7722e-08	-1.6079e-08	-1.2556e-08	6.1798e-08	4.4285e-08	-5.8257e-08	5.6154e-08	-1.2722e-07	1.144e-08	-9.5544e-08	3.4619e-08	9.1056e-08	8.3146e-08	-1.8317e-08	-7.4948e-08	-1.9982e-08	9.5951e-08
9.731e-08	4.5662e-09	1.1773e-07	1.5513e-07	1.3116e-07	-1.9074e-08	1.0165e-07	-6.0882e-08	-4.0659e-08	-8.417e-08	8.3877e-09	2.162e-09	-2.147e-08	3.0859e-08	3.627e-08	7.5946e-08	2.3307e-08	2.3302e-07	-8.4282e-08	-1.2197e-07	-7.3302e-08	-7.5969e-08	-4.648e-08	-5.4584e-10	-1.5534e-08	2.7325e-08	-1.9356e-08	-1.1209e-08	6.207e-08	4.4136e-08	-5.6187e-08	5.6095e-08	-1.3185e-07	7.8961e-09	-9.9062e-08	3.8385e-08	9.7848e-08	8.256e-08	-2.4941e-08	-7.9752e-08	-3.273e-08	9.678e-08
1.0397e-07	7.646e-09	1.2279e-07	1.603e-07	1.3662e-07	-1.9469e-08	1.0538e-07	-6.1531e-08	-3.907e-08	-8.7414e-08	8.0295e-09	2.4985e-09	-2.4868e-08	3.1863e-08	3.6033e-08	7.6867e-08	2.3944e-08	2.346e-07	-8.4071e-08	-1.2466e-07	-7.9848e-08	-7.6624e-08	-4.5981e-08	9.305e-10	-2.0453e-08	2.6881e-08	-2.2657e-08	-9.8887e-09	6.2311e-08	4.3934e-08	-5.3956e-08	5.5951e-08	-1.3629e-07	4.3482e-09	-1.0244e-07	4.2142e-08	1.0458e-07	8.1826e-08	-3.1571e-08	-8.4404e-08	-4.5447e-08	9.7483e-08
1.105e-07	1.0675e-08	1.2774e-07	1.653e-07	1.4191e-07	-1.9867e-08	1.0899e-07	-6.2082e-08	-3.7405e-08	-9.0543e-08	7.6544e-09	2.7509e-09	-2.8306e-08	3.2796e-08	3.5762e-08	7.767e-08	2.4553e-08	2.3582e-07	-8.372e-08	-1.2718e-07	-8.6373e-08	-7.7222e-08	-4.5446e-08	2.4363e-09	-2.5442e-08	2.639e-08	-2.5979e-08	-8.5937e-09	6.2522e-08	4.3678e-08	-5.1571e-08	5.5724e-08	-1.4054e-07	7.9919e-10	-1.0567e-07	4.5883e-08	1.1125e-07	8.0949e-08	-3.8201e-08	-8.8906e-08	-5.8125e-08	9.8058e-08
1.169e-07	1.3649e-08	1.3259e-07	1.7013e-07	1.4702e-07	-2.0267e-08	1.1248e-07	-6.2536e-08	-3.5668e-08	-9.3554e-08	7.2623e-09	2.9233e-09	-3.1782e-08	3.3659e-08	3.5463e-08	7.8359e-08	2.5136e-08	2.367e-07	-8.3229e-08	-1.2954e-07	-9.2871e-08	-7.7766e-08	-4.4877e-08	3.9682e-09	-3.0496e-08	2.5852e-08	-2.9318e-08	-7.3239e-09	6.2704e-08	4.3371e-08	-4.9036e-08	5.5413e-08	-1.446e-07	-2.7475e-09	-1.0876e-07	4.9605e-08	1.1784e-07	7.9931e-08	-4.4826e-08	-9.3261e-08	-7.0752e-08	9.8505e-08
1.2317e-07	1.6568e-08	1.3731e-07	1.748e-07	1.5196e-07	-2.0666e-08	1.1584e-07	-6.2895e-08	-3.3861e-08	-9.6446e-08	6.8528e-09	3.0199e-09	-3.5291e-08	3.4455e-08	3.5141e-08	7.8933e-08	2.5693e-08	2.3725e-07	-8.2603e-08	-1.3173e-07	-9.9337e-08	-7.8262e-08	-4.4276e-08	5.5226e-09	-3.561e-08	2.5268e-08	-3.2673e-08	-6.0788e-09	6.2857e-08	4.3012e-08	-4.6356e-08	5.5019e-08	-1.4847e-07	-6.2887e-09	-1.117e-07	5.3303e-08	1.2435e-07	7.8778e-08	-5.1439e-08	-9.7473e-08	-8.3321e-08	9.8823e-08
1.2929e-07	1.9429e-08	1.4193e-07	1.793e-07	1.5672e-07	-2.1062e-08	1.1907e-07	-6.3163e-08	-3.1989e-08	-9.9219e-08	6.4257e-09	3.0453e-09	-3.8831e-08	3.5188e-08	3.4803e-08	7.9394e-08	2.6226e-08	2.375e-07	-8.1843e-08	-1.3375e-07	-1.0577e-07	-7.8712e-08	-4.3645e-08	7.0958e-09	-4.0779e-08	2.4637e-08	-3.6039e-08	-4.8578e-09	6.2982e-08	4.2605e-08	-4.3538e-08	5.4543e-08	-1.5217e-07	-9.8213e-09	-1.1451e-07	5.6973e-08	1.3077e-07	7.7494e-08	-5.8036e-08	-1.0154e-07	-9.5821e-08	9.9012e-08
1.3528e-07	2.2228e-08	1.4643e-07	1.8362e-07	1.6131e-07	-2.1454e-08	1.2218e-07	-6.3343e-08	-3.0054e-08	-1.0187e-07	5.9807e-09	3.0043e-09	-4.2397e-08	3.5861e-08	3.4454e-08	7.9745e-08	2.6734e-08	2.3745e-07	-8.0954e-08	-1.356e-07	-1.1216e-07	-7.9121e-08	-4.2984e-08	8.684e-09	-4.5997e-08	2.396e-08	-3.9415e-08	-3.6605e-09	6.3079e-08	4.2149e-08	-4.0588e-08	5.3985e-08	-1.5569e-07	-1.3342e-08	-1.1718e-07	6.0609e-08	1.371e-07	7.6083e-08	-6.4611e-08	-1.0548e-07	-1.0824e-07	9.9071e-08
1.4113e-07	2.4966e-08	1.5081e-07	1.8778e-07	1.6572e-07	-2.1838e-08	1.2515e-07	-6.3439e-08	-2.8062e-08	-1.044e-07	5.5177e-09	2.9018e-09	-4.5987e-08	3.6476e-08	3.41e-08	7.9987e-08	2.7219e-08	2.3713e-07	-7.994e-08	-1.3729e-07	-1.185e-07	-7.9491e-08	-4.2296e-08	1.0283e-08	-5.1258e-08	2.3236e-08	-4.2797e-08	-2.4861e-09	6.3151e-08	4.1646e-08	-3.7513e-08	5.3346e-08	-1.5904e-07	-1.6849e-08	-1.1971e-07	6.4209e-08	1.4333e-07	7.4552e-08	-7.1159e-08	-1.0928e-07	-1.2058e-07	9.9001e-08
1.4684e-07	2.7639e-08	1.5508e-07	1.9176e-07	1.6995e-07	-2.2212e-08	1.28e-07	-6.3453e-08	-2.6016e-08	-1.0681e-07	5.0364e-09	2.7432e-09	-4.9596e-08	3.7037e-08	3.3747e-08	8.0123e-08	2.7682e-08	2.3655e-07	-7.8803e-08	-1.388e-07	-1.248e-07	-7.9826e-08	-4.1582e-08	1.189e-08	-5.6558e-08	2.2467e-08	-4.6182e-08	-1.334e-09	6.3196e-08	4.1098e-08	-3.4322e-08	5.2626e-08	-1.6222e-07	-2.0337e-08	-1.2211e-07	6.7768e-08	1.4946e-07	7.2907e-08	-7.7675e-08	-1.1295e-07	-1.3283e-07	9.8801e-08
1.5239e-07	3.0247e-08	1.5924e-07	1.9557e-07	1.7401e-07	-2.2576e-08	1.3072e-07	-6.339e-08	-2.392e-08	-1.091e-07	4.5365e-09	2.5339e-09	-5.3222e-08	3.7547e-08	3.3403e-08	8.0155e-08	2.8123e-08	2.3573e-07	-7.7549e-08	-1.4015e-07	-1.3104e-07	-8.013e-08	-4.0844e-08	1.3499e-08	-6.1891e-08	2.1651e-08	-4.9567e-08	-2.0355e-10	6.3216e-08	4.0505e-08	-3.1023e-08	5.1827e-08	-1.6523e-07	-2.3806e-08	-1.2438e-07	7.1282e-08	1.5547e-07	7.1153e-08	-8.4155e-08	-1.165e-07	-1.4497e-07	9.8471e-08
1.578e-07	3.2787e-08	1.6327e-07	1.9921e-07	1.779e-07	-2.2926e-08	1.333e-07	-6.3252e-08	-2.178e-08	-1.1126e-07	4.018e-09	2.2794e-09	-5.6862e-08	3.8011e-08	3.3072e-08	8.0085e-08	2.8544e-08	2.3468e-07	-7.6182e-08	-1.4134e-07	-1.3722e-07	-8.0404e-08	-4.0084e-08	1.5107e-08	-6.7251e-08	2.079e-08	-5.295e-08	9.06e-10	6.3212e-08	3.9871e-08	-2.7624e-08	5.0949e-08	-1.681e-07	-2.7252e-08	-1.2652e-07	7.4747e-08	1.6137e-07	6.9296e-08	-9.0593e-08	-1.1993e-07	-1.57e-07	9.8014e-08
1.6306e-07	3.5258e-08	1.6719e-07	2.0268e-07	1.8162e-07	-2.3261e-08	1.3576e-07	-6.3045e-08	-1.9601e-08	-1.133e-07	3.4807e-09	1.9856e-09	-6.0511e-08	3.8431e-08	3.276e-08	7.9917e-08	2.8946e-08	2.3342e-07	-7.4707e-08	-1.4236e-07	-1.4334e-07	-8.0653e-08	-3.9303e-08	1.671e-08	-7.2634e-08	1.9884e-08	-5.6327e-08	1.9954e-09	6.3185e-08	3.9195e-08	-2.4135e-08	4.9992e-08	-1.708e-07	-3.0673e-08	-1.2854e-07	7.816e-08	1.6714e-07	6.7345e-08	-9.6984e-08	-1.2324e-07	-1.6892e-07	9.7428e-08
1.6817e-07	3.766e-08	1.71e-07	2.0598e-07	1.8516e-07	-2.3578e-08	1.3808e-07	-6.2772e-08	-1.7386e-08	-1.1521e-07	2.9245e-09	1.6585e-09	-6.4166e-08	3.8811e-08	3.2475e-08	7.9654e-08	2.9329e-08	2.3197e-07	-7.3129e-08	-1.4322e-07	-1.4939e-07	-8.0879e-08	-3.8504e-08	1.8304e-08	-7.8034e-08	1.8932e-08	-5.9696e-08	3.0653e-09	6.3134e-08	3.848e-08	-2.0566e-08	4.8957e-08	-1.7336e-07	-3.4065e-08	-1.3044e-07	8.1518e-08	1.7279e-07	6.5304e-08	-1.0333e-07	-1.2643e-07	-1.8071e-07	9.6716e-08
1.7312e-07	3.999e-08	1.7469e-07	2.0911e-07	1.8854e-07	-2.3876e-08	1.4028e-07	-6.2436e-08	-1.5142e-08	-1.17e-07	2.3494e-09	1.304e-09	-6.7824e-08	3.9156e-08	3.2222e-08	7.9299e-08	2.9694e-08	2.3034e-07	-7.1453e-08	-1.4392e-07	-1.5537e-07	-8.1084e-08	-3.7688e-08	1.9883e-08	-8.3446e-08	1.7935e-08	-6.3054e-08	4.1165e-09	6.3061e-08	3.7728e-08	-1.6927e-08	4.7844e-08	-1.7578e-07	-3.7428e-08	-1.3222e-07	8.4817e-08	1.7831e-07	6.3182e-08	-1.0961e-07	-1.2952e-07	-1.9238e-07	9.5879e-08
1.7793e-07	4.2249e-08	1.7826e-07	2.1207e-07	1.9175e-07	-2.4152e-08	1.4234e-07	-6.2042e-08	-1.2875e-08	-1.1867e-07	1.7553e-09	9.2846e-10	-7.1481e-08	3.9469e-08	3.2007e-08	7.8855e-08	3.0042e-08	2.2855e-07	-6.9685e-08	-1.4446e-07	-1.6128e-07	-8.127e-08	-3.6856e-08	2.1445e-08	-8.8865e-08	1.6893e-08	-6.6397e-08	5.1498e-09	6.2967e-08	3.6938e-08	-1.3229e-08	4.6655e-08	-1.7806e-07	-4.0758e-08	-1.3389e-07	8.8054e-08	1.8369e-07	6.0985e-08	-1.1584e-07	-1.325e-07	-2.0391e-07	9.4919e-08
1.8258e-07	4.4435e-08	1.8173e-07	2.1487e-07	1.948e-07	-2.4406e-08	1.4428e-07	-6.1593e-08	-1.0589e-08	-1.2021e-07	1.1423e-09	5.3812e-10	-7.5135e-08	3.9754e-08	3.1836e-08	7.8326e-08	3.0374e-08	2.2662e-07	-6.783e-08	-1.4485e-07	-1.671e-07	-8.144e-08	-3.601e-08	2.2985e-08	-9.4285e-08	1.5806e-08	-6.9724e-08	6.1658e-09	6.2851e-08	3.6114e-08	-9.4811e-09	4.539e-08	-1.8021e-07	-4.4054e-08	-1.3544e-07	9.1226e-08	1.8894e-07	5.8722e-08	-1.22e-07	-1.3538e-07	-2.153e-07	9.3837e-08
1.8708e-07	4.6547e-08	1.8507e-07	2.175e-07	1.9768e-07	-2.4634e-08	1.4609e-07	-6.1093e-08	-8.2903e-09	-1.2163e-07	5.1044e-10	1.3936e-10	-7.8781e-08	4.0014e-08	3.1714e-08	7.7717e-08	3.069e-08	2.2455e-07	-6.5894e-08	-1.4509e-07	-1.7284e-07	-8.1596e-08	-3.5152e-08	2.4498e-08	-9.9702e-08	1.4675e-08	-7.3031e-08	7.1653e-09	6.2714e-08	3.5257e-08	-5.6959e-09	4.405e-08	-1.8223e-07	-4.7314e-08	-1.3689e-07	9.433e-08	1.9404e-07	5.6399e-08	-1.281e-07	-1.3816e-07	-2.2654e-07	9.2637e-08
1.9142e-07	4.8585e-08	1.8831e-07	2.1997e-07	2.004e-07	-2.4836e-08	1.4777e-07	-6.0546e-08	-5.9853e-09	-1.2292e-07	-1.4001e-10	-2.6141e-10	-8.2418e-08	4.0255e-08	3.1647e-08	7.703e-08	3.0991e-08	2.2236e-07	-6.3883e-08	-1.4518e-07	-1.7849e-07	-8.1738e-08	-3.4283e-08	2.5982e-08	-1.0511e-07	1.35e-08	-7.6315e-08	8.1489e-09	6.2557e-08	3.4368e-08	-1.8845e-09	4.2636e-08	-1.8412e-07	-5.0535e-08	-1.3824e-07	9.7363e-08	1.9899e-07	5.4024e-08	-1.3412e-07	-1.4085e-07	-2.3763e-07	9.132e-08
1.9561e-07	5.0549e-08	1.9143e-07	2.2228e-07	2.0296e-07	-2.501e-08	1.4932e-07	-5.9955e-08	-3.6798e-09	-1.2409e-07	-8.0885e-10	-6.5777e-10	-8.6041e-08	4.048e-08	3.164e-08	7.6271e-08	3.1277e-08	2.2006e-07	-6.1804e-08	-1.4513e-07	-1.8405e-07	-8.1869e-08	-3.3406e-08	2.7431e-08	-1.1051e-07	1.2281e-08	-7.9574e-08	9.1172e-09	6.238e-08	3.3448e-08	1.9418e-09	4.1147e-08	-1.859e-07	-5.3715e-08	-1.3949e-07	1.0032e-07	2.038e-07	5.1606e-08	-1.4007e-07	-1.4345e-07	-2.4856e-07	8.989e-08
1.9965e-07	5.2438e-08	1.9445e-07	2.2443e-07	2.0537e-07	-2.5154e-08	1.5075e-07	-5.9323e-08	-1.38e-09	-1.2513e-07	-1.4958e-09	-1.0433e-09	-8.9647e-08	4.0693e-08	3.1699e-08	7.5444e-08	3.1549e-08	2.1767e-07	-5.9662e-08	-1.4495e-07	-1.8952e-07	-8.1989e-08	-3.2521e-08	2.8843e-08	-1.1588e-07	1.1019e-08	-8.2805e-08	1.0071e-08	6.2184e-08	3.25e-08	5.7711e-09	3.9586e-08	-1.8756e-07	-5.6853e-08	-1.4064e-07	1.0321e-07	2.0845e-07	4.9151e-08	-1.4594e-07	-1.4596e-07	-2.5933e-07	8.8351e-08
2.0354e-07	5.4252e-08	1.9735e-07	2.2643e-07	2.0762e-07	-2.5266e-08	1.5206e-07	-5.8655e-08	9.0778e-10	-1.2606e-07	-2.2003e-09	-1.4115e-09	-9.3234e-08	4.0898e-08	3.1827e-08	7.4553e-08	3.1808e-08	2.152e-07	-5.7464e-08	-1.4463e-07	-1.9488e-07	-8.21e-08	-3.1631e-08	3.0214e-08	-1.2124e-07	9.7136e-09	-8.6006e-08	1.1011e-08	6.1967e-08	3.1524e-08	9.5917e-09	3.7953e-08	-1.8912e-07	-5.9948e-08	-1.4171e-07	1.0602e-07	2.1295e-07	4.6667e-08	-1.5173e-07	-1.4839e-07	-2.6994e-07	8.6706e-08
2.0727e-07	5.5991e-08	2.0015e-07	2.2828e-07	2.0972e-07	-2.5346e-08	1.5325e-07	-5.7953e-08	3.1772e-09	-1.2685e-07	-2.9221e-09	-1.7562e-09	-9.6799e-08	4.1099e-08	3.203e-08	7.3602e-08	3.2053e-08	2.1266e-07	-5.5216e-08	-1.4419e-07	-2.0015e-07	-8.2202e-08	-3.0736e-08	3.154e-08	-1.2657e-07	8.3666e-09	-8.9174e-08	1.1937e-08	6.1731e-08	3.0523e-08	1.3392e-08	3.6249e-08	-1.9056e-07	-6.2997e-08	-1.4268e-07	1.0874e-07	2.1728e-07	4.4164e-08	-1.5743e-07	-1.5074e-07	-2.8037e-07	8.4959e-08
2.1085e-07	5.7654e-08	2.0284e-07	2.2997e-07	2.1167e-07	-2.5392e-08	1.5432e-07	-5.722e-08	5.4218e-09	-1.2753e-07	-3.6605e-09	-2.071e-09	-1.0034e-07	4.1299e-08	3.2311e-08	7.2597e-08	3.2285e-08	2.1006e-07	-5.2925e-08	-1.4362e-07	-2.0531e-07	-8.2297e-08	-2.9838e-08	3.2818e-08	-1.3186e-07	6.9783e-09	-9.2306e-08	1.2849e-08	6.1476e-08	2.9496e-08	1.716e-08	3.4475e-08	-1.9191e-07	-6.5998e-08	-1.4358e-07	1.1139e-07	2.2146e-07	4.1648e-08	-1.6304e-07	-1.5302e-07	-2.9063e-07	8.3115e-08
2.1429e-07	5.9242e-08	2.0543e-07	2.3152e-07	2.1347e-07	-2.5403e-08	1.5528e-07	-5.6459e-08	7.6353e-09	-1.2808e-07	-4.415e-09	-2.3498e-09	-1.0385e-07	4.1504e-08	3.2675e-08	7.1542e-08	3.2505e-08	2.074e-07	-5.0597e-08	-1.4294e-07	-2.1036e-07	-8.2384e-08	-2.8939e-08	3.4046e-08	-1.3712e-07	5.5496e-09	-9.5399e-08	1.3749e-08	6.12e-08	2.8447e-08	2.0884e-08	3.2633e-08	-1.9316e-07	-6.8951e-08	-1.4439e-07	1.1395e-07	2.2548e-07	3.9127e-08	-1.6856e-07	-1.5522e-07	-3.0071e-07	8.1178e-08
2.1757e-07	6.0755e-08	2.0791e-07	2.3292e-07	2.1513e-07	-2.5377e-08	1.5612e-07	-5.5673e-08	9.811e-09	-1.2852e-07	-5.1847e-09	-2.5867e-09	-1.0733e-07	4.1716e-08	3.3124e-08	7.0443e-08	3.2712e-08	2.0471e-07	-4.8239e-08	-1.4215e-07	-2.1529e-07	-8.2464e-08	-2.804e-08	3.522e-08	-1.4235e-07	4.0814e-09	-9.8452e-08	1.4637e-08	6.0904e-08	2.7376e-08	2.4553e-08	3.0723e-08	-1.9431e-07	-7.1854e-08	-1.4512e-07	1.1642e-07	2.2933e-07	3.661e-08	-1.7399e-07	-1.5736e-07	-3.1061e-07	7.9153e-08
2.2071e-07	6.2194e-08	2.103e-07	2.3418e-07	2.1665e-07	-2.5314e-08	1.5685e-07	-5.4864e-08	1.1943e-08	-1.2883e-07	-5.969e-09	-2.7757e-09	-1.1077e-07	4.194e-08	3.3662e-08	6.9304e-08	3.2906e-08	2.0198e-07	-4.5856e-08	-1.4125e-07	-2.2011e-07	-8.2537e-08	-2.7141e-08	3.6337e-08	-1.4752e-07	2.5748e-09	-1.0146e-07	1.5512e-08	6.0588e-08	2.6285e-08	2.8155e-08	2.8748e-08	-1.9537e-07	-7.4706e-08	-1.4579e-07	1.1881e-07	2.3302e-07	3.4103e-08	-1.7932e-07	-1.5943e-07	-3.2032e-07	7.7045e-08
2.237e-07	6.3557e-08	2.1258e-07	2.353e-07	2.1803e-07	-2.5213e-08	1.5746e-07	-5.4036e-08	1.4024e-08	-1.2903e-07	-6.7668e-09	-2.9113e-09	-1.1419e-07	4.2178e-08	3.4292e-08	6.813e-08	3.3087e-08	1.9922e-07	-4.3456e-08	-1.4026e-07	-2.2482e-07	-8.2604e-08	-2.6245e-08	3.7397e-08	-1.5265e-07	1.0311e-09	-1.0443e-07	1.6375e-08	6.025e-08	2.5174e-08	3.1679e-08	2.6709e-08	-1.9633e-07	-7.7504e-08	-1.4638e-07	1.2111e-07	2.3654e-07	3.1615e-08	-1.8454e-07	-1.6143e-07	-3.2984e-07	7.486e-08
2.2655e-07	6.4847e-08	2.1476e-07	2.3629e-07	2.1928e-07	-2.5072e-08	1.5798e-07	-5.3191e-08	1.6048e-08	-1.2911e-07	-7.5773e-09	-2.9881e-09	-1.1756e-07	4.2434e-08	3.5015e-08	6.6926e-08	3.3255e-08	1.9644e-07	-4.1045e-08	-1.3917e-07	-2.294e-07	-8.2663e-08	-2.5353e-08	3.8396e-08	-1.5772e-07	-5.484e-10	-1.0734e-07	1.7227e-08	5.9891e-08	2.4046e-08	3.5116e-08	2.4608e-08	-1.9722e-07	-8.0249e-08	-1.469e-07	1.2332e-07	2.399e-07	2.9153e-08	-1.8966e-07	-1.6337e-07	-3.3917e-07	7.2604e-08
2.2925e-07	6.6063e-08	2.1685e-07	2.3715e-07	2.2039e-07	-2.4891e-08	1.5839e-07	-5.233e-08	1.801e-08	-1.2907e-07	-8.3994e-09	-3.0008e-09	-1.2089e-07	4.2712e-08	3.5834e-08	6.5698e-08	3.341e-08	1.9365e-07	-3.8629e-08	-1.38e-07	-2.3386e-07	-8.2716e-08	-2.4464e-08	3.9333e-08	-1.6274e-07	-2.1621e-09	-1.1021e-07	1.8066e-08	5.951e-08	2.2902e-08	3.8454e-08	2.2446e-08	-1.9801e-07	-8.2939e-08	-1.4735e-07	1.2543e-07	2.4308e-07	2.6725e-08	-1.9467e-07	-1.6525e-07	-3.4831e-07	7.0281e-08
2.3182e-07	6.7207e-08	2.1884e-07	2.3788e-07	2.2137e-07	-2.467e-08	1.5869e-07	-5.1457e-08	1.9902e-08	-1.2892e-07	-9.2318e-09	-2.9447e-09	-1.2418e-07	4.3014e-08	3.675e-08	6.445e-08	3.3552e-08	1.9085e-07	-3.6214e-08	-1.3675e-07	-2.3819e-07	-8.276e-08	-2.3581e-08	4.0206e-08	-1.677e-07	-3.8083e-09	-1.1302e-07	1.8893e-08	5.9105e-08	2.1742e-08	4.1685e-08	2.0227e-08	-1.9873e-07	-8.5573e-08	-1.4775e-07	1.2746e-07	2.461e-07	2.4338e-08	-1.9957e-07	-1.6707e-07	-3.5724e-07	6.7899e-08
2.3425e-07	6.8278e-08	2.2075e-07	2.3848e-07	2.2222e-07	-2.4407e-08	1.589e-07	-5.0573e-08	2.1719e-08	-1.2867e-07	-1.0073e-08	-2.815e-09	-1.2742e-07	4.3344e-08	3.7762e-08	6.3187e-08	3.368e-08	1.8805e-07	-3.3807e-08	-1.3543e-07	-2.424e-07	-8.2797e-08	-2.2704e-08	4.1016e-08	-1.726e-07	-5.4851e-09	-1.1578e-07	1.9708e-08	5.8677e-08	2.0569e-08	4.4798e-08	1.7951e-08	-1.9936e-07	-8.815e-08	-1.4808e-07	1.2939e-07	2.4895e-07	2.1999e-08	-2.0436e-07	-1.6884e-07	-3.6598e-07	6.5464e-08
2.3654e-07	6.9277e-08	2.2255e-07	2.3896e-07	2.2294e-07	-2.4103e-08	1.5902e-07	-4.9681e-08	2.3456e-08	-1.283e-07	-1.0923e-08	-2.6077e-09	-1.3061e-07	4.3704e-08	3.8873e-08	6.1915e-08	3.3795e-08	1.8525e-07	-3.1413e-08	-1.3404e-07	-2.4647e-07	-8.2825e-08	-2.1833e-08	4.176e-08	-1.7743e-07	-7.1907e-09	-1.1848e-07	2.051e-08	5.8224e-08	1.9383e-08	4.7786e-08	1.5623e-08	-1.9992e-07	-9.0669e-08	-1.4835e-07	1.3122e-07	2.5163e-07	1.9714e-08	-2.0904e-07	-1.7055e-07	-3.745e-07	6.2981e-08
2.387e-07	7.0206e-08	2.2428e-07	2.3932e-07	2.2355e-07	-2.3756e-08	1.5904e-07	-4.8783e-08	2.5106e-08	-1.2783e-07	-1.1778e-08	-2.3186e-09	-1.3376e-07	4.4097e-08	4.008e-08	6.0639e-08	3.3895e-08	1.8245e-07	-2.9039e-08	-1.326e-07	-2.5041e-07	-8.2843e-08	-2.097e-08	4.2439e-08	-1.8219e-07	-8.9227e-09	-1.2113e-07	2.1299e-08	5.7745e-08	1.8185e-08	5.064e-08	1.3244e-08	-2.0039e-07	-9.313e-08	-1.4856e-07	1.3297e-07	2.5414e-07	1.749e-08	-2.136e-07	-1.7221e-07	-3.8282e-07	6.0457e-08
2.4073e-07	7.1065e-08	2.2591e-07	2.3957e-07	2.2403e-07	-2.3367e-08	1.5897e-07	-4.788e-08	2.6665e-08	-1.2726e-07	-1.2639e-08	-1.9443e-09	-1.3685e-07	4.4525e-08	4.1385e-08	5.9362e-08	3.398e-08	1.7966e-07	-2.669e-08	-1.3111e-07	-2.5422e-07	-8.2852e-08	-2.0115e-08	4.3053e-08	-1.8688e-07	-1.0679e-08	-1.2371e-07	2.2075e-08	5.7241e-08	1.6978e-08	5.3354e-08	1.0819e-08	-2.0079e-07	-9.5532e-08	-1.4872e-07	1.3461e-07	2.5648e-07	1.5334e-08	-2.1803e-07	-1.7381e-07	-3.9093e-07	5.79e-08
2.4263e-07	7.1855e-08	2.2746e-07	2.397e-07	2.2439e-07	-2.2935e-08	1.5882e-07	-4.6977e-08	2.8128e-08	-1.2659e-07	-1.3503e-08	-1.4814e-09	-1.399e-07	4.499e-08	4.2784e-08	5.809e-08	3.405e-08	1.7687e-07	-2.4371e-08	-1.2957e-07	-2.5789e-07	-8.2849e-08	-1.9268e-08	4.3603e-08	-1.9149e-07	-1.2457e-08	-1.2623e-07	2.2837e-08	5.6709e-08	1.5761e-08	5.592e-08	8.3486e-09	-2.0111e-07	-9.7875e-08	-1.4882e-07	1.3616e-07	2.5866e-07	1.3251e-08	-2.2235e-07	-1.7536e-07	-3.9883e-07	5.5316e-08
2.444e-07	7.2577e-08	2.2892e-07	2.3973e-07	2.2464e-07	-2.246e-08	1.5858e-07	-4.6073e-08	2.9489e-08	-1.2583e-07	-1.4368e-08	-9.2725e-10	-1.4288e-07	4.5495e-08	4.4277e-08	5.6828e-08	3.4105e-08	1.741e-07	-2.2088e-08	-1.28e-07	-2.6142e-07	-8.2834e-08	-1.843e-08	4.4088e-08	-1.9603e-07	-1.4254e-08	-1.2869e-07	2.3585e-08	5.6149e-08	1.4537e-08	5.8333e-08	5.838e-09	-2.0136e-07	-1.0016e-07	-1.4887e-07	1.3761e-07	2.6066e-07	1.1247e-08	-2.2653e-07	-1.7686e-07	-4.0651e-07	5.2712e-08
2.4606e-07	7.3233e-08	2.303e-07	2.3964e-07	2.2478e-07	-2.1942e-08	1.5826e-07	-4.5173e-08	3.0744e-08	-1.2498e-07	-1.5233e-08	-2.7929e-10	-1.4581e-07	4.604e-08	4.5861e-08	5.558e-08	3.4144e-08	1.7135e-07	-1.9847e-08	-1.2639e-07	-2.6481e-07	-8.2807e-08	-1.7599e-08	4.4511e-08	-2.0048e-07	-1.6068e-08	-1.3108e-07	2.4317e-08	5.5559e-08	1.3307e-08	6.0588e-08	3.2906e-09	-2.0153e-07	-1.0238e-07	-1.4887e-07	1.3897e-07	2.625e-07	9.3263e-09	-2.306e-07	-1.7831e-07	-4.1397e-07	5.0094e-08
2.4759e-07	7.3822e-08	2.3161e-07	2.3946e-07	2.248e-07	-2.1382e-08	1.5787e-07	-4.4277e-08	3.189e-08	-1.2404e-07	-1.6097e-08	4.6453e-10	-1.4869e-07	4.6628e-08	4.7533e-08	5.435e-08	3.4166e-08	1.6861e-07	-1.7652e-08	-1.2477e-07	-2.6806e-07	-8.2765e-08	-1.6778e-08	4.4873e-08	-2.0485e-07	-1.7896e-08	-1.334e-07	2.5034e-08	5.494e-08	1.2071e-08	6.2682e-08	7.1035e-10	-2.0163e-07	-1.0455e-07	-1.4881e-07	1.4023e-07	2.6418e-07	7.4945e-09	-2.3453e-07	-1.7971e-07	-4.2121e-07	4.7471e-08
2.4901e-07	7.4347e-08	2.3283e-07	2.3917e-07	2.2472e-07	-2.0779e-08	1.5741e-07	-4.3389e-08	3.2923e-08	-1.2303e-07	-1.6957e-08	1.3058e-09	-1.515e-07	4.7259e-08	4.9289e-08	5.3142e-08	3.4172e-08	1.6589e-07	-1.5508e-08	-1.2312e-07	-2.7117e-07	-8.2708e-08	-1.5964e-08	4.5175e-08	-2.0913e-07	-1.9734e-08	-1.3566e-07	2.5734e-08	5.4291e-08	1.083e-08	6.461e-08	-1.8987e-09	-2.0166e-07	-1.0665e-07	-1.4871e-07	1.4139e-07	2.6569e-07	5.7556e-09	-2.3833e-07	-1.8105e-07	-4.2823e-07	4.4849e-08
2.5031e-07	7.4809e-08	2.3398e-07	2.3879e-07	2.2454e-07	-2.0134e-08	1.5688e-07	-4.2512e-08	3.3839e-08	-1.2194e-07	-1.7811e-08	2.2459e-09	-1.5426e-07	4.7934e-08	5.1126e-08	5.196e-08	3.416e-08	1.6319e-07	-1.342e-08	-1.2147e-07	-2.7414e-07	-8.2635e-08	-1.5159e-08	4.542e-08	-2.1332e-07	-2.158e-08	-1.3785e-07	2.6416e-08	5.3609e-08	9.5874e-09	6.637e-08	-4.5322e-09	-2.0162e-07	-1.087e-07	-1.4856e-07	1.4246e-07	2.6704e-07	4.1135e-09	-2.42e-07	-1.8235e-07	-4.3503e-07	4.2235e-08
2.5151e-07	7.5209e-08	2.3506e-07	2.3831e-07	2.2425e-07	-1.9447e-08	1.5628e-07	-4.1646e-08	3.4636e-08	-1.2078e-07	-1.8659e-08	3.2855e-09	-1.5695e-07	4.8655e-08	5.3039e-08	5.0808e-08	3.4131e-08	1.6051e-07	-1.1391e-08	-1.1981e-07	-2.7696e-07	-8.2544e-08	-1.436e-08	4.561e-08	-2.1742e-07	-2.343e-08	-1.3996e-07	2.708e-08	5.2896e-08	8.3425e-09	6.7961e-08	-7.1854e-09	-2.015e-07	-1.1068e-07	-1.4835e-07	1.4343e-07	2.6823e-07	2.5716e-09	-2.4554e-07	-1.8359e-07	-4.416e-07	3.9638e-08
2.5259e-07	7.5548e-08	2.3606e-07	2.3774e-07	2.2387e-07	-1.8718e-08	1.5562e-07	-4.0796e-08	3.5311e-08	-1.1956e-07	-1.9497e-08	4.4251e-09	-1.5958e-07	4.9421e-08	5.5023e-08	4.9689e-08	3.4084e-08	1.5785e-07	-9.4262e-09	-1.1816e-07	-2.7965e-07	-8.2434e-08	-1.3569e-08	4.5749e-08	-2.2143e-07	-2.5282e-08	-1.4201e-07	2.7724e-08	5.215e-08	7.0971e-09	6.9382e-08	-9.8537e-09	-2.0131e-07	-1.1261e-07	-1.481e-07	1.4431e-07	2.6925e-07	1.1329e-09	-2.4894e-07	-1.8479e-07	-4.4794e-07	3.7063e-08
2.5358e-07	7.5827e-08	2.3699e-07	2.3709e-07	2.2339e-07	-1.7949e-08	1.549e-07	-3.9963e-08	3.5863e-08	-1.1828e-07	-2.0323e-08	5.6648e-09	-1.6215e-07	5.0232e-08	5.7072e-08	4.8607e-08	3.4018e-08	1.5521e-07	-7.5291e-09	-1.1651e-07	-2.8218e-07	-8.2303e-08	-1.2783e-08	4.5839e-08	-2.2534e-07	-2.7132e-08	-1.4398e-07	2.8348e-08	5.1371e-08	5.8524e-09	7.0634e-08	-1.2532e-08	-2.0105e-07	-1.1448e-07	-1.478e-07	1.4509e-07	2.7013e-07	-2.002e-10	-2.522e-07	-1.8593e-07	-4.5405e-07	3.4518e-08
2.5446e-07	7.6049e-08	2.3786e-07	2.3634e-07	2.2282e-07	-1.7139e-08	1.5412e-07	-3.9151e-08	3.6289e-08	-1.1695e-07	-2.1137e-08	7.0041e-09	-1.6466e-07	5.1088e-08	5.9181e-08	4.7564e-08	3.3934e-08	1.5259e-07	-5.7033e-09	-1.1487e-07	-2.8457e-07	-8.2151e-08	-1.2003e-08	4.5884e-08	-2.2915e-07	-2.8976e-08	-1.4587e-07	2.895e-08	5.0558e-08	4.6094e-09	7.1718e-08	-1.5216e-08	-2.0072e-07	-1.163e-07	-1.4746e-07	1.4578e-07	2.7084e-07	-1.4256e-09	-2.5533e-07	-1.8702e-07	-4.5993e-07	3.2011e-08
2.5525e-07	7.6214e-08	2.3865e-07	2.3551e-07	2.2216e-07	-1.629e-08	1.533e-07	-3.8363e-08	3.6589e-08	-1.1557e-07	-2.1936e-08	8.4425e-09	-1.671e-07	5.199e-08	6.1342e-08	4.6563e-08	3.3831e-08	1.5e-07	-3.952e-09	-1.1325e-07	-2.8682e-07	-8.1976e-08	-1.1226e-08	4.5889e-08	-2.3287e-07	-3.0811e-08	-1.4769e-07	2.9529e-08	4.971e-08	3.3696e-09	7.2635e-08	-1.7899e-08	-2.0031e-07	-1.1805e-07	-1.4707e-07	1.4637e-07	2.7141e-07	-2.5419e-09	-2.5831e-07	-1.8807e-07	-4.6558e-07	2.9547e-08
2.5595e-07	7.6323e-08	2.3938e-07	2.3461e-07	2.2142e-07	-1.5402e-08	1.5243e-07	-3.7602e-08	3.6763e-08	-1.1416e-07	-2.2719e-08	9.9788e-09	-1.6947e-07	5.2935e-08	6.3549e-08	4.5607e-08	3.371e-08	1.4743e-07	-2.2782e-09	-1.1165e-07	-2.8892e-07	-8.1777e-08	-1.0453e-08	4.5855e-08	-2.3648e-07	-3.2634e-08	-1.4944e-07	3.0085e-08	4.8829e-08	2.1339e-09	7.3388e-08	-2.0577e-08	-1.9984e-07	-1.1976e-07	-1.4663e-07	1.4687e-07	2.7182e-07	-3.548e-09	-2.6115e-07	-1.8906e-07	-4.71e-07	2.7134e-08
2.5656e-07	7.6379e-08	2.4005e-07	2.3362e-07	2.206e-07	-1.4477e-08	1.5151e-07	-3.687e-08	3.6811e-08	-1.1271e-07	-2.3483e-08	1.1612e-08	-1.7178e-07	5.3923e-08	6.5794e-08	4.4698e-08	3.3569e-08	1.4488e-07	-6.8458e-10	-1.1008e-07	-2.9087e-07	-8.1553e-08	-9.6811e-09	4.5789e-08	-2.3999e-07	-3.4441e-08	-1.5111e-07	3.0616e-08	4.7913e-08	9.0379e-10	7.3981e-08	-2.3244e-08	-1.9929e-07	-1.2141e-07	-1.4615e-07	1.4728e-07	2.7209e-07	-4.4435e-09	-2.6386e-07	-1.9e-07	-4.7619e-07	2.4777e-08
2.5709e-07	7.6383e-08	2.4066e-07	2.3256e-07	2.197e-07	-1.3514e-08	1.5056e-07	-3.6171e-08	3.6733e-08	-1.1123e-07	-2.4227e-08	1.3339e-08	-1.7402e-07	5.4952e-08	6.807e-08	4.3837e-08	3.3408e-08	1.4235e-07	8.2649e-10	-1.0854e-07	-2.9268e-07	-8.1302e-08	-8.9097e-09	4.5695e-08	-2.434e-07	-3.6227e-08	-1.5271e-07	3.112e-08	4.6963e-08	-3.1964e-10	7.4418e-08	-2.5894e-08	-1.9868e-07	-1.2301e-07	-1.4563e-07	1.476e-07	2.7221e-07	-5.2284e-09	-2.6642e-07	-1.9089e-07	-4.8114e-07	2.2483e-08
2.5753e-07	7.6336e-08	2.412e-07	2.3142e-07	2.1872e-07	-1.2516e-08	1.4956e-07	-3.5507e-08	3.653e-08	-1.0974e-07	-2.4949e-08	1.5159e-08	-1.762e-07	5.6022e-08	7.0369e-08	4.3026e-08	3.3229e-08	1.3985e-07	2.2529e-09	-1.0704e-07	-2.9435e-07	-8.1024e-08	-8.1374e-09	4.5577e-08	-2.467e-07	-3.7991e-08	-1.5422e-07	3.1597e-08	4.5978e-08	-1.5351e-09	7.4705e-08	-2.8523e-08	-1.9799e-07	-1.2455e-07	-1.4506e-07	1.4783e-07	2.7219e-07	-5.903e-09	-2.6883e-07	-1.9173e-07	-4.8586e-07	2.0258e-08
2.579e-07	7.6239e-08	2.4168e-07	2.3021e-07	2.1768e-07	-1.1483e-08	1.4854e-07	-3.4883e-08	3.6204e-08	-1.0822e-07	-2.5648e-08	1.707e-08	-1.7831e-07	5.713e-08	7.2681e-08	4.2266e-08	3.3031e-08	1.3738e-07	3.5929e-09	-1.0557e-07	-2.9587e-07	-8.0717e-08	-7.3626e-09	4.5441e-08	-2.4989e-07	-3.9727e-08	-1.5567e-07	3.2045e-08	4.496e-08	-2.7414e-09	7.4848e-08	-3.1124e-08	-1.9723e-07	-1.2605e-07	-1.4444e-07	1.4798e-07	2.7204e-07	-6.4684e-09	-2.7111e-07	-1.9252e-07	-4.9035e-07	1.8106e-08
2.5819e-07	7.6095e-08	2.4211e-07	2.2894e-07	2.1657e-07	-1.0417e-08	1.4749e-07	-3.4301e-08	3.5756e-08	-1.067e-07	-2.6321e-08	1.9068e-08	-1.8035e-07	5.8273e-08	7.4999e-08	4.156e-08	3.2813e-08	1.3492e-07	4.8449e-09	-1.0415e-07	-2.9724e-07	-8.0379e-08	-6.584e-09	4.5291e-08	-2.5298e-07	-4.1432e-08	-1.5703e-07	3.2464e-08	4.3908e-08	-3.9371e-09	7.4852e-08	-3.3693e-08	-1.9641e-07	-1.275e-07	-1.4378e-07	1.4803e-07	2.7175e-07	-6.9258e-09	-2.7324e-07	-1.9326e-07	-4.9461e-07	1.6033e-08
2.5842e-07	7.5905e-08	2.4248e-07	2.2759e-07	2.154e-07	-9.3185e-09	1.4641e-07	-3.3764e-08	3.519e-08	-1.0518e-07	-2.6969e-08	2.115e-08	-1.8232e-07	5.945e-08	7.7313e-08	4.0906e-08	3.2577e-08	1.3249e-07	6.0079e-09	-1.0277e-07	-2.9847e-07	-8.0012e-08	-5.8001e-09	4.5132e-08	-2.5596e-07	-4.3103e-08	-1.5832e-07	3.2852e-08	4.2823e-08	-5.1211e-09	7.4726e-08	-3.6224e-08	-1.9551e-07	-1.2891e-07	-1.4308e-07	1.4801e-07	2.7132e-07	-7.2771e-09	-2.7523e-07	-1.9395e-07	-4.9864e-07	1.4043e-08
2.5858e-07	7.5669e-08	2.4279e-07	2.2619e-07	2.1416e-07	-8.1889e-09	1.453e-07	-3.3275e-08	3.4509e-08	-1.0366e-07	-2.7589e-08	2.3314e-08	-1.8422e-07	6.0658e-08	7.9614e-08	4.0306e-08	3.2322e-08	1.3009e-07	7.081e-09	-1.0143e-07	-2.9956e-07	-7.9612e-08	-5.0093e-09	4.4971e-08	-2.5883e-07	-4.4736e-08	-1.5954e-07	3.3208e-08	4.1706e-08	-6.292e-09	7.4476e-08	-3.871e-08	-1.9456e-07	-1.3027e-07	-1.4234e-07	1.4789e-07	2.7078e-07	-7.5243e-09	-2.7707e-07	-1.9459e-07	-5.0243e-07	1.214e-08
2.5868e-07	7.5391e-08	2.4305e-07	2.2472e-07	2.1288e-07	-7.0296e-09	1.4418e-07	-3.2837e-08	3.3715e-08	-1.0215e-07	-2.818e-08	2.5556e-08	-1.8606e-07	6.1895e-08	8.1893e-08	3.976e-08	3.2049e-08	1.2771e-07	8.0638e-09	-1.0014e-07	-3.0051e-07	-7.918e-08	-4.2101e-09	4.4811e-08	-2.6158e-07	-4.6328e-08	-1.6068e-07	3.3532e-08	4.0557e-08	-7.4485e-09	7.4112e-08	-4.1148e-08	-1.9353e-07	-1.3158e-07	-1.4155e-07	1.477e-07	2.701e-07	-7.6702e-09	-2.7877e-07	-1.9519e-07	-5.06e-07	1.0327e-08
2.5872e-07	7.507e-08	2.4325e-07	2.2319e-07	2.1154e-07	-5.8421e-09	1.4305e-07	-3.2453e-08	3.2813e-08	-1.0065e-07	-2.8742e-08	2.7872e-08	-1.8783e-07	6.3157e-08	8.414e-08	3.9268e-08	3.1758e-08	1.2536e-07	8.9561e-09	-9.8904e-08	-3.0131e-07	-7.8715e-08	-3.4012e-09	4.4659e-08	-2.6422e-07	-4.7875e-08	-1.6174e-07	3.3821e-08	3.9378e-08	-8.5892e-09	7.3642e-08	-4.3533e-08	-1.9245e-07	-1.3286e-07	-1.4072e-07	1.4743e-07	2.6931e-07	-7.7175e-09	-2.8033e-07	-1.9574e-07	-5.0934e-07	8.6079e-09
2.5871e-07	7.471e-08	2.4341e-07	2.216e-07	2.1016e-07	-4.6277e-09	1.419e-07	-3.2125e-08	3.1808e-08	-9.9168e-08	-2.9272e-08	3.0259e-08	-1.8953e-07	6.444e-08	8.6346e-08	3.883e-08	3.1449e-08	1.2303e-07	9.7581e-09	-9.7715e-08	-3.0198e-07	-7.8217e-08	-2.5811e-09	4.4519e-08	-2.6676e-07	-4.9374e-08	-1.6273e-07	3.4076e-08	3.8168e-08	-9.7128e-09	7.3076e-08	-4.5858e-08	-1.913e-07	-1.3409e-07	-1.3984e-07	1.4708e-07	2.6841e-07	-7.6695e-09	-2.8175e-07	-1.9625e-07	-5.1245e-07	6.9848e-09
2.5864e-07	7.431e-08	2.4351e-07	2.1996e-07	2.0874e-07	-3.3879e-09	1.4075e-07	-3.1857e-08	3.0703e-08	-9.771e-08	-2.9771e-08	3.2712e-08	-1.9117e-07	6.5743e-08	8.8501e-08	3.8445e-08	3.1123e-08	1.2073e-07	1.047e-08	-9.6576e-08	-3.025e-07	-7.7685e-08	-1.7485e-09	4.4397e-08	-2.6917e-07	-5.0821e-08	-1.6365e-07	3.4295e-08	3.693e-08	-1.0818e-08	7.2423e-08	-4.8119e-08	-1.901e-07	-1.3529e-07	-1.3893e-07	1.4665e-07	2.6739e-07	-7.5297e-09	-2.8303e-07	-1.9671e-07	-5.1534e-07	5.4598e-09
2.5854e-07	7.3872e-08	2.4356e-07	2.1826e-07	2.0729e-07	-2.1243e-09	1.3959e-07	-3.1649e-08	2.9505e-08	-9.628e-08	-3.0238e-08	3.5227e-08	-1.9273e-07	6.7062e-08	9.0596e-08	3.8113e-08	3.078e-08	1.1845e-07	1.1093e-08	-9.5487e-08	-3.0289e-07	-7.7118e-08	-9.0213e-10	4.4299e-08	-2.7148e-07	-5.2214e-08	-1.6449e-07	3.4477e-08	3.5663e-08	-1.1903e-08	7.1693e-08	-5.0312e-08	-1.8884e-07	-1.3644e-07	-1.3798e-07	1.4615e-07	2.6627e-07	-7.302e-09	-2.8416e-07	-1.9713e-07	-5.1801e-07	4.0343e-09
2.5839e-07	7.3398e-08	2.4356e-07	2.1651e-07	2.058e-07	-8.3841e-10	1.3843e-07	-3.1504e-08	2.8218e-08	-9.488e-08	-3.0671e-08	3.7799e-08	-1.9423e-07	6.8392e-08	9.2622e-08	3.7833e-08	3.0421e-08	1.162e-07	1.1629e-08	-9.4448e-08	-3.0313e-07	-7.6518e-08	-4.0807e-11	4.4228e-08	-2.7366e-07	-5.355e-08	-1.6526e-07	3.4623e-08	3.4369e-08	-1.2967e-08	7.0896e-08	-5.2432e-08	-1.8753e-07	-1.3756e-07	-1.3698e-07	1.4558e-07	2.6505e-07	-6.9903e-09	-2.8516e-07	-1.9752e-07	-5.2046e-07	2.7092e-09
2.582e-07	7.2889e-08	2.4351e-07	2.1472e-07	2.0428e-07	4.6824e-10	1.3728e-07	-3.1423e-08	2.685e-08	-9.3514e-08	-3.1072e-08	4.0424e-08	-1.9566e-07	6.9731e-08	9.4568e-08	3.7603e-08	3.0046e-08	1.1398e-07	1.2078e-08	-9.3459e-08	-3.0325e-07	-7.5883e-08	8.3647e-10	4.4191e-08	-2.7574e-07	-5.4825e-08	-1.6596e-07	3.473e-08	3.305e-08	-1.4007e-08	7.0044e-08	-5.4475e-08	-1.8617e-07	-1.3864e-07	-1.3595e-07	1.4494e-07	2.6373e-07	-6.5989e-09	-2.8603e-07	-1.9786e-07	-5.2269e-07	1.4851e-09
2.5797e-07	7.2347e-08	2.4341e-07	2.1287e-07	2.0274e-07	1.794e-09	1.3612e-07	-3.1408e-08	2.5405e-08	-9.2185e-08	-3.1438e-08	4.3097e-08	-1.9703e-07	7.1075e-08	9.6427e-08	3.7423e-08	2.9656e-08	1.1179e-07	1.2443e-08	-9.252e-08	-3.0322e-07	-7.5213e-08	1.7306e-09	4.419e-08	-2.7769e-07	-5.6038e-08	-1.6659e-07	3.48e-08	3.1705e-08	-1.5024e-08	6.9145e-08	-5.6437e-08	-1.8476e-07	-1.3969e-07	-1.3488e-07	1.4423e-07	2.6231e-07	-6.1324e-09	-2.8676e-07	-1.9817e-07	-5.247e-07	3.62e-10
2.5772e-07	7.1772e-08	2.4326e-07	2.1099e-07	2.0119e-07	3.1373e-09	1.3498e-07	-3.146e-08	2.389e-08	-9.0897e-08	-3.1771e-08	4.5813e-08	-1.9833e-07	7.2421e-08	9.8188e-08	3.7291e-08	2.9252e-08	1.0963e-07	1.2725e-08	-9.1627e-08	-3.0307e-07	-7.451e-08	2.6423e-09	4.4232e-08	-2.7953e-07	-5.7185e-08	-1.6716e-07	3.483e-08	3.0337e-08	-1.6015e-08	6.8212e-08	-5.8314e-08	-1.8332e-07	-1.407e-07	-1.3378e-07	1.4346e-07	2.6081e-07	-5.5952e-09	-2.8735e-07	-1.9844e-07	-5.265e-07	-6.6066e-10
2.5743e-07	7.1165e-08	2.4307e-07	2.0906e-07	1.9962e-07	4.4964e-09	1.3385e-07	-3.1579e-08	2.2313e-08	-8.965e-08	-3.2069e-08	4.8568e-08	-1.9956e-07	7.3764e-08	9.9842e-08	3.7205e-08	2.8833e-08	1.075e-07	1.2927e-08	-9.0781e-08	-3.0278e-07	-7.3774e-08	3.5721e-09	4.432e-08	-2.8126e-07	-5.8265e-08	-1.6765e-07	3.4822e-08	2.8945e-08	-1.6979e-08	6.7253e-08	-6.0102e-08	-1.8183e-07	-1.4168e-07	-1.3264e-07	1.4262e-07	2.5923e-07	-4.9922e-09	-2.8782e-07	-1.9868e-07	-5.281e-07	-1.5838e-09
2.5712e-07	7.0528e-08	2.4282e-07	2.0709e-07	1.9805e-07	5.8697e-09	1.3274e-07	-3.1765e-08	2.068e-08	-8.8448e-08	-3.2333e-08	5.1355e-08	-2.0072e-07	7.5101e-08	1.0138e-07	3.7163e-08	2.84e-08	1.054e-07	1.3051e-08	-8.9979e-08	-3.0237e-07	-7.3004e-08	4.5203e-09	4.4458e-08	-2.8286e-07	-5.9275e-08	-1.6808e-07	3.4775e-08	2.7532e-08	-1.7914e-08	6.6281e-08	-6.1799e-08	-1.8031e-07	-1.4262e-07	-1.3146e-07	1.4172e-07	2.5757e-07	-4.3283e-09	-2.8815e-07	-1.9889e-07	-5.2948e-07	-2.4088e-09
2.5679e-07	6.9862e-08	2.4254e-07	2.0508e-07	1.9647e-07	7.2556e-09	1.3164e-07	-3.2019e-08	1.8999e-08	-8.729e-08	-3.2563e-08	5.4171e-08	-2.0182e-07	7.6428e-08	1.028e-07	3.7165e-08	2.7955e-08	1.0334e-07	1.3101e-08	-8.922e-08	-3.0183e-07	-7.2202e-08	5.4873e-09	4.465e-08	-2.8435e-07	-6.0213e-08	-1.6845e-07	3.4688e-08	2.6098e-08	-1.8819e-08	6.5304e-08	-6.3402e-08	-1.7876e-07	-1.4353e-07	-1.3025e-07	1.4077e-07	2.5584e-07	-3.6084e-09	-2.8836e-07	-1.9906e-07	-5.3067e-07	-3.1374e-09
2.5644e-07	6.9168e-08	2.422e-07	2.0304e-07	1.9489e-07	8.6522e-09	1.3056e-07	-3.234e-08	1.7276e-08	-8.6179e-08	-3.2759e-08	5.7009e-08	-2.0286e-07	7.7742e-08	1.0409e-07	3.7207e-08	2.7497e-08	1.0132e-07	1.308e-08	-8.8501e-08	-3.0116e-07	-7.1369e-08	6.4728e-09	4.4898e-08	-2.8573e-07	-6.1078e-08	-1.6875e-07	3.4561e-08	2.4644e-08	-1.9692e-08	6.4334e-08	-6.4908e-08	-1.7719e-07	-1.4441e-07	-1.2901e-07	1.3976e-07	2.5404e-07	-2.8376e-09	-2.8845e-07	-1.9921e-07	-5.3165e-07	-3.7718e-09
2.5607e-07	6.8446e-08	2.4182e-07	2.0097e-07	1.9332e-07	1.0058e-08	1.2951e-07	-3.2727e-08	1.552e-08	-8.5115e-08	-3.2921e-08	5.9864e-08	-2.0383e-07	7.9039e-08	1.0523e-07	3.7287e-08	2.7027e-08	9.9339e-08	1.299e-08	-8.7819e-08	-3.0037e-07	-7.0505e-08	7.4766e-09	4.5207e-08	-2.8698e-07	-6.1867e-08	-1.6899e-07	3.4396e-08	2.3171e-08	-2.0532e-08	6.338e-08	-6.6315e-08	-1.7559e-07	-1.4526e-07	-1.2773e-07	1.3869e-07	2.5217e-07	-2.0209e-09	-2.8842e-07	-1.9933e-07	-5.3244e-07	-4.3144e-09
2.5568e-07	6.7698e-08	2.414e-07	1.9887e-07	1.9177e-07	1.1471e-08	1.2849e-07	-3.3179e-08	1.3737e-08	-8.4097e-08	-3.3049e-08	6.2732e-08	-2.0473e-07	8.0316e-08	1.0624e-07	3.7405e-08	2.6545e-08	9.7399e-08	1.2836e-08	-8.7174e-08	-2.9946e-07	-6.9611e-08	8.4983e-09	4.5577e-08	-2.8812e-07	-6.2579e-08	-1.6917e-07	3.4191e-08	2.1681e-08	-2.1338e-08	6.2451e-08	-6.762e-08	-1.7397e-07	-1.4607e-07	-1.2643e-07	1.3757e-07	2.5025e-07	-1.1634e-09	-2.8826e-07	-1.9943e-07	-5.3304e-07	-4.7681e-09
2.5529e-07	6.6925e-08	2.4093e-07	1.9675e-07	1.9023e-07	1.289e-08	1.2749e-07	-3.3694e-08	1.1936e-08	-8.3125e-08	-3.3144e-08	6.5606e-08	-2.0557e-07	8.1569e-08	1.0709e-07	3.7556e-08	2.6053e-08	9.5506e-08	1.262e-08	-8.6561e-08	-2.9843e-07	-6.8689e-08	9.5369e-09	4.6013e-08	-2.8915e-07	-6.3214e-08	-1.6929e-07	3.3948e-08	2.0173e-08	-2.2108e-08	6.1556e-08	-6.8823e-08	-1.7233e-07	-1.4684e-07	-1.251e-07	1.364e-07	2.4828e-07	-2.7011e-10	-2.88e-07	-1.995e-07	-5.3345e-07	-5.1357e-09
2.5488e-07	6.6126e-08	2.4042e-07	1.9459e-07	1.8871e-07	1.4313e-08	1.2652e-07	-3.427e-08	1.0124e-08	-8.2199e-08	-3.3205e-08	6.8482e-08	-2.0635e-07	8.2795e-08	1.0778e-07	3.7739e-08	2.555e-08	9.3662e-08	1.2348e-08	-8.5978e-08	-2.9728e-07	-6.774e-08	1.0592e-08	4.6514e-08	-2.9005e-07	-6.3769e-08	-1.6935e-07	3.3666e-08	1.8649e-08	-2.2841e-08	6.0704e-08	-6.9922e-08	-1.7069e-07	-1.4758e-07	-1.2374e-07	1.3518e-07	2.4625e-07	6.5385e-10	-2.8762e-07	-1.9955e-07	-5.3367e-07	-5.4207e-09
2.5447e-07	6.5305e-08	2.3987e-07	1.9242e-07	1.8721e-07	1.5738e-08	1.2559e-07	-3.4904e-08	8.3093e-09	-8.1318e-08	-3.3234e-08	7.1354e-08	-2.0707e-07	8.399e-08	1.0831e-07	3.7952e-08	2.5037e-08	9.187e-08	1.2022e-08	-8.5422e-08	-2.9602e-07	-6.6766e-08	1.1661e-08	4.7083e-08	-2.9084e-07	-6.4245e-08	-1.6936e-07	3.3347e-08	1.7109e-08	-2.3535e-08	5.9903e-08	-7.0917e-08	-1.6903e-07	-1.4829e-07	-1.2235e-07	1.3392e-07	2.4418e-07	1.6036e-09	-2.8713e-07	-1.9958e-07	-5.3372e-07	-5.6264e-09
2.5405e-07	6.446e-08	2.3927e-07	1.9023e-07	1.8575e-07	1.7163e-08	1.2469e-07	-3.5594e-08	6.4983e-09	-8.048e-08	-3.3231e-08	7.4216e-08	-2.0772e-07	8.5152e-08	1.0867e-07	3.8192e-08	2.4515e-08	9.0133e-08	1.1648e-08	-8.4891e-08	-2.9465e-07	-6.5767e-08	1.2745e-08	4.7721e-08	-2.9151e-07	-6.4639e-08	-1.6932e-07	3.2991e-08	1.5555e-08	-2.419e-08	5.9161e-08	-7.1805e-08	-1.6737e-07	-1.4896e-07	-1.2094e-07	1.3261e-07	2.4207e-07	2.5742e-09	-2.8654e-07	-1.9958e-07	-5.3359e-07	-5.7565e-09
2.5362e-07	6.3592e-08	2.3863e-07	1.8803e-07	1.8432e-07	1.8588e-08	1.2383e-07	-3.6336e-08	4.6989e-09	-7.9683e-08	-3.3195e-08	7.7064e-08	-2.0831e-07	8.6278e-08	1.0886e-07	3.8456e-08	2.3984e-08	8.8455e-08	1.1228e-08	-8.4381e-08	-2.9318e-07	-6.4746e-08	1.384e-08	4.8428e-08	-2.9207e-07	-6.4953e-08	-1.6922e-07	3.2598e-08	1.3987e-08	-2.4804e-08	5.8484e-08	-7.2589e-08	-1.6571e-07	-1.496e-07	-1.195e-07	1.3127e-07	2.3993e-07	3.5611e-09	-2.8584e-07	-1.9957e-07	-5.3329e-07	-5.8148e-09
2.532e-07	6.2703e-08	2.3795e-07	1.8581e-07	1.8293e-07	2.0009e-08	1.2301e-07	-3.7127e-08	2.9184e-09	-7.8926e-08	-3.3129e-08	7.9892e-08	-2.0884e-07	8.7364e-08	1.0888e-07	3.8743e-08	2.3444e-08	8.6839e-08	1.0768e-08	-8.389e-08	-2.9159e-07	-6.3704e-08	1.4945e-08	4.9203e-08	-2.9251e-07	-6.5185e-08	-1.6907e-07	3.217e-08	1.2405e-08	-2.5375e-08	5.788e-08	-7.3266e-08	-1.6405e-07	-1.5019e-07	-1.1804e-07	1.2988e-07	2.3775e-07	4.5595e-09	-2.8505e-07	-1.9953e-07	-5.3282e-07	-5.8052e-09
2.5277e-07	6.1794e-08	2.3723e-07	1.8358e-07	1.8159e-07	2.1426e-08	1.2223e-07	-3.7962e-08	1.1638e-09	-7.8206e-08	-3.3031e-08	8.2696e-08	-2.093e-07	8.8409e-08	1.0871e-07	3.9049e-08	2.2897e-08	8.5289e-08	1.0271e-08	-8.3415e-08	-2.8991e-07	-6.2643e-08	1.6058e-08	5.0047e-08	-2.9284e-07	-6.5336e-08	-1.6887e-07	3.1707e-08	1.0811e-08	-2.5904e-08	5.7353e-08	-7.3838e-08	-1.6239e-07	-1.5075e-07	-1.1656e-07	1.2846e-07	2.3555e-07	5.5652e-09	-2.8416e-07	-1.9948e-07	-5.3219e-07	-5.732e-09
2.5234e-07	6.0863e-08	2.3648e-07	1.8135e-07	1.8029e-07	2.2837e-08	1.215e-07	-3.8838e-08	-5.5802e-10	-7.7521e-08	-3.2903e-08	8.547e-08	-2.0971e-07	8.941e-08	1.0837e-07	3.9372e-08	2.2343e-08	8.3807e-08	9.7432e-09	-8.2953e-08	-2.8812e-07	-6.1566e-08	1.7177e-08	5.0958e-08	-2.9305e-07	-6.5405e-08	-1.6862e-07	3.1212e-08	9.2046e-09	-2.6388e-08	5.6908e-08	-7.4305e-08	-1.6074e-07	-1.5127e-07	-1.1505e-07	1.27e-07	2.3332e-07	6.574e-09	-2.8318e-07	-1.9941e-07	-5.314e-07	-5.5994e-09
2.5191e-07	5.9913e-08	2.3568e-07	1.7911e-07	1.7904e-07	2.4239e-08	1.208e-07	-3.975e-08	-2.2405e-09	-7.6869e-08	-3.2745e-08	8.8209e-08	-2.1005e-07	9.0363e-08	1.0784e-07	3.9711e-08	2.1781e-08	8.2397e-08	9.1876e-09	-8.2501e-08	-2.8624e-07	-6.0473e-08	1.8299e-08	5.1936e-08	-2.9315e-07	-6.5393e-08	-1.6833e-07	3.0684e-08	7.5867e-09	-2.6827e-08	5.6551e-08	-7.4668e-08	-1.591e-07	-1.5174e-07	-1.1353e-07	1.255e-07	2.3108e-07	7.5818e-09	-2.8211e-07	-1.9933e-07	-5.3046e-07	-5.4117e-09
2.5148e-07	5.8944e-08	2.3485e-07	1.7687e-07	1.7785e-07	2.5632e-08	1.2016e-07	-4.0693e-08	-3.8773e-09	-7.6246e-08	-3.2558e-08	9.0909e-08	-2.1034e-07	9.1269e-08	1.0713e-07	4.0062e-08	2.1213e-08	8.106e-08	8.609e-09	-8.2057e-08	-2.8427e-07	-5.9368e-08	1.9422e-08	5.2978e-08	-2.9314e-07	-6.53e-08	-1.6799e-07	3.0125e-08	5.9578e-09	-2.722e-08	5.6284e-08	-7.4928e-08	-1.5747e-07	-1.5218e-07	-1.1198e-07	1.2398e-07	2.2882e-07	8.5851e-09	-2.8095e-07	-1.9922e-07	-5.2937e-07	-5.1732e-09
2.5105e-07	5.7956e-08	2.3398e-07	1.7464e-07	1.7671e-07	2.7013e-08	1.1956e-07	-4.1662e-08	-5.4623e-09	-7.5649e-08	-3.2343e-08	9.3565e-08	-2.1057e-07	9.2124e-08	1.0623e-07	4.0424e-08	2.0639e-08	7.98e-08	8.012e-09	-8.1619e-08	-2.8221e-07	-5.8251e-08	2.0543e-08	5.4082e-08	-2.9302e-07	-6.5128e-08	-1.676e-07	2.9537e-08	4.3182e-09	-2.7566e-08	5.6111e-08	-7.5087e-08	-1.5586e-07	-1.5257e-07	-1.1042e-07	1.2243e-07	2.2656e-07	9.5802e-09	-2.7972e-07	-1.991e-07	-5.2814e-07	-4.8886e-09
2.5063e-07	5.695e-08	2.3308e-07	1.7241e-07	1.7563e-07	2.8381e-08	1.19e-07	-4.2652e-08	-6.9899e-09	-7.5077e-08	-3.2099e-08	9.6171e-08	-2.1074e-07	9.2928e-08	1.0515e-07	4.0793e-08	2.006e-08	7.8619e-08	7.4009e-09	-8.1182e-08	-2.8006e-07	-5.7127e-08	2.1659e-08	5.5245e-08	-2.9279e-07	-6.4878e-08	-1.6718e-07	2.892e-08	2.6682e-09	-2.7865e-08	5.6034e-08	-7.5146e-08	-1.5425e-07	-1.5291e-07	-1.0884e-07	1.2084e-07	2.2428e-07	1.0564e-08	-2.784e-07	-1.9896e-07	-5.2677e-07	-4.5621e-09
2.502e-07	5.5926e-08	2.3215e-07	1.7019e-07	1.7462e-07	2.9734e-08	1.185e-07	-4.3657e-08	-8.4546e-09	-7.4525e-08	-3.1828e-08	9.8725e-08	-2.1085e-07	9.3678e-08	1.039e-07	4.1169e-08	1.9475e-08	7.7518e-08	6.7801e-09	-8.0747e-08	-2.7782e-07	-5.5996e-08	2.2768e-08	5.6466e-08	-2.9245e-07	-6.4549e-08	-1.6671e-07	2.8278e-08	1.0082e-09	-2.8117e-08	5.6055e-08	-7.5107e-08	-1.5267e-07	-1.5321e-07	-1.0724e-07	1.1924e-07	2.22e-07	1.1534e-08	-2.7702e-07	-1.9881e-07	-5.2527e-07	-4.1983e-09
2.4979e-07	5.4886e-08	2.3118e-07	1.6798e-07	1.7366e-07	3.1072e-08	1.1804e-07	-4.4671e-08	-9.8513e-09	-7.3991e-08	-3.153e-08	1.0122e-07	-2.109e-07	9.4374e-08	1.0246e-07	4.1548e-08	1.8885e-08	7.6497e-08	6.1538e-09	-8.0309e-08	-2.7551e-07	-5.486e-08	2.3866e-08	5.774e-08	-2.92e-07	-6.4145e-08	-1.662e-07	2.761e-08	-6.6153e-10	-2.8319e-08	5.6174e-08	-7.4973e-08	-1.5111e-07	-1.5345e-07	-1.0562e-07	1.1761e-07	2.1972e-07	1.2487e-08	-2.7556e-07	-1.9863e-07	-5.2364e-07	-3.8017e-09
2.4937e-07	5.3829e-08	2.3018e-07	1.6579e-07	1.7278e-07	3.2391e-08	1.1763e-07	-4.5689e-08	-1.1176e-08	-7.3471e-08	-3.1205e-08	1.0365e-07	-2.1089e-07	9.5014e-08	1.0085e-07	4.1929e-08	1.829e-08	7.5559e-08	5.5262e-09	-7.9867e-08	-2.7311e-07	-5.3723e-08	2.4951e-08	5.9065e-08	-2.9144e-07	-6.3666e-08	-1.6565e-07	2.6919e-08	-2.3409e-09	-2.8473e-08	5.6391e-08	-7.4744e-08	-1.4956e-07	-1.5365e-07	-1.0399e-07	1.1595e-07	2.1744e-07	1.342e-08	-2.7403e-07	-1.9844e-07	-5.2189e-07	-3.3768e-09
2.4895e-07	5.2756e-08	2.2916e-07	1.6361e-07	1.7196e-07	3.3691e-08	1.1727e-07	-4.6705e-08	-1.2423e-08	-7.2963e-08	-3.0856e-08	1.0602e-07	-2.1083e-07	9.5599e-08	9.9072e-08	4.2311e-08	1.7691e-08	7.4703e-08	4.9015e-09	-7.942e-08	-2.7064e-07	-5.2585e-08	2.602e-08	6.0435e-08	-2.9078e-07	-6.3115e-08	-1.6507e-07	2.6207e-08	-4.0297e-09	-2.8578e-08	5.6706e-08	-7.4425e-08	-1.4804e-07	-1.5379e-07	-1.0235e-07	1.1428e-07	2.1516e-07	1.4333e-08	-2.7244e-07	-1.9823e-07	-5.2002e-07	-2.9278e-09
2.4854e-07	5.1667e-08	2.281e-07	1.6146e-07	1.7121e-07	3.497e-08	1.1695e-07	-4.7713e-08	-1.3589e-08	-7.2463e-08	-3.0481e-08	1.0832e-07	-2.1071e-07	9.6127e-08	9.7125e-08	4.2691e-08	1.7087e-08	7.3928e-08	4.2836e-09	-7.8965e-08	-2.681e-07	-5.1449e-08	2.707e-08	6.1848e-08	-2.9001e-07	-6.2494e-08	-1.6445e-07	2.5475e-08	-5.7279e-09	-2.8634e-08	5.7118e-08	-7.4017e-08	-1.4654e-07	-1.5388e-07	-1.0069e-07	1.1259e-07	2.1289e-07	1.5223e-08	-2.7078e-07	-1.98e-07	-5.1804e-07	-2.4592e-09
2.4813e-07	5.0564e-08	2.2702e-07	1.5933e-07	1.7053e-07	3.6226e-08	1.1669e-07	-4.8707e-08	-1.4672e-08	-7.1969e-08	-3.0083e-08	1.1054e-07	-2.1054e-07	9.6598e-08	9.5017e-08	4.3068e-08	1.6479e-08	7.3234e-08	3.6762e-09	-7.85e-08	-2.655e-07	-5.0318e-08	2.8098e-08	6.33e-08	-2.8915e-07	-6.1805e-08	-1.6379e-07	2.4725e-08	-7.4355e-09	-2.864e-08	5.7625e-08	-7.3522e-08	-1.4506e-07	-1.5391e-07	-9.9024e-08	1.1088e-07	2.1064e-07	1.6089e-08	-2.6907e-07	-1.9775e-07	-5.1596e-07	-1.975e-09
2.4772e-07	4.9447e-08	2.2592e-07	1.5722e-07	1.6992e-07	3.7459e-08	1.1647e-07	-4.9681e-08	-1.5667e-08	-7.1479e-08	-2.9661e-08	1.1268e-07	-2.1031e-07	9.7012e-08	9.2753e-08	4.344e-08	1.5866e-08	7.262e-08	3.0832e-09	-7.8024e-08	-2.6282e-07	-4.9192e-08	2.9101e-08	6.4785e-08	-2.8818e-07	-6.105e-08	-1.6309e-07	2.396e-08	-9.1524e-09	-2.8597e-08	5.8224e-08	-7.2945e-08	-1.4361e-07	-1.5388e-07	-9.7345e-08	1.0916e-07	2.0839e-07	1.693e-08	-2.673e-07	-1.9748e-07	-5.1377e-07	-1.4794e-09
2.4731e-07	4.8316e-08	2.2479e-07	1.5514e-07	1.6937e-07	3.8666e-08	1.163e-07	-5.063e-08	-1.6571e-08	-7.0988e-08	-2.9217e-08	1.1475e-07	-2.1003e-07	9.737e-08	9.0341e-08	4.3806e-08	1.5248e-08	7.2084e-08	2.5079e-09	-7.7536e-08	-2.6009e-07	-4.8074e-08	3.0077e-08	6.6299e-08	-2.8712e-07	-6.0233e-08	-1.6237e-07	2.318e-08	-1.0879e-08	-2.8505e-08	5.8912e-08	-7.2287e-08	-1.4218e-07	-1.538e-07	-9.5657e-08	1.0743e-07	2.0616e-07	1.7745e-08	-2.6548e-07	-1.9718e-07	-5.1148e-07	-9.7642e-10
2.469e-07	4.7173e-08	2.2364e-07	1.531e-07	1.689e-07	3.9846e-08	1.1618e-07	-5.1548e-08	-1.7383e-08	-7.0496e-08	-2.8751e-08	1.1672e-07	-2.0969e-07	9.7672e-08	8.7787e-08	4.4165e-08	1.4626e-08	7.1624e-08	1.9538e-09	-7.7034e-08	-2.5729e-07	-4.6965e-08	3.1024e-08	6.7837e-08	-2.8595e-07	-5.9356e-08	-1.6161e-07	2.2388e-08	-1.2615e-08	-2.8364e-08	5.9685e-08	-7.1552e-08	-1.4078e-07	-1.5365e-07	-9.3962e-08	1.0568e-07	2.0394e-07	1.8533e-08	-2.636e-07	-1.9687e-07	-5.091e-07	-4.6978e-10
2.4649e-07	4.6016e-08	2.2247e-07	1.5108e-07	1.685e-07	4.0998e-08	1.1611e-07	-5.2429e-08	-1.8101e-08	-7e-08	-2.8264e-08	1.1861e-07	-2.093e-07	9.7917e-08	8.5099e-08	4.4516e-08	1.3998e-08	7.1237e-08	1.4238e-09	-7.6518e-08	-2.5444e-07	-4.5868e-08	3.1939e-08	6.9395e-08	-2.847e-07	-5.8422e-08	-1.6081e-07	2.1586e-08	-1.436e-08	-2.8173e-08	6.054e-08	-7.0742e-08	-1.3939e-07	-1.5344e-07	-9.226e-08	1.0393e-07	2.0174e-07	1.9295e-08	-2.6168e-07	-1.9652e-07	-5.0663e-07	3.6775e-11
2.4608e-07	4.4849e-08	2.2129e-07	1.4911e-07	1.6817e-07	4.2121e-08	1.1607e-07	-5.3269e-08	-1.8722e-08	-6.9498e-08	-2.7758e-08	1.2041e-07	-2.0886e-07	9.8108e-08	8.2286e-08	4.4857e-08	1.3366e-08	7.0921e-08	9.2104e-10	-7.5985e-08	-2.5154e-07	-4.4783e-08	3.2821e-08	7.0968e-08	-2.8335e-07	-5.7434e-08	-1.5999e-07	2.0776e-08	-1.6115e-08	-2.7935e-08	6.1472e-08	-6.9862e-08	-1.3804e-07	-1.5317e-07	-9.0554e-08	1.0217e-07	1.9956e-07	2.003e-08	-2.5971e-07	-1.9615e-07	-5.0407e-07	5.397e-10
2.4567e-07	4.367e-08	2.2008e-07	1.4717e-07	1.679e-07	4.3214e-08	1.1609e-07	-5.4061e-08	-1.9247e-08	-6.8989e-08	-2.7232e-08	1.2211e-07	-2.0837e-07	9.8245e-08	7.9356e-08	4.5189e-08	1.2728e-08	7.0671e-08	4.481e-10	-7.5435e-08	-2.4858e-07	-4.3712e-08	3.3666e-08	7.2549e-08	-2.819e-07	-5.6396e-08	-1.5913e-07	1.9959e-08	-1.788e-08	-2.7648e-08	6.2475e-08	-6.8915e-08	-1.367e-07	-1.5283e-07	-8.8844e-08	1.004e-07	1.9739e-07	2.0738e-08	-2.577e-07	-1.9576e-07	-5.0144e-07	1.0356e-09
2.4525e-07	4.2481e-08	2.1886e-07	1.4527e-07	1.677e-07	4.4274e-08	1.1614e-07	-5.4801e-08	-1.9673e-08	-6.8471e-08	-2.6688e-08	1.2371e-07	-2.0782e-07	9.8329e-08	7.6317e-08	4.5509e-08	1.2083e-08	7.0486e-08	7.4927e-12	-7.4867e-08	-2.4558e-07	-4.2657e-08	3.4475e-08	7.4136e-08	-2.8037e-07	-5.531e-08	-1.5825e-07	1.9139e-08	-1.9654e-08	-2.7314e-08	6.3544e-08	-6.7903e-08	-1.3539e-07	-1.5243e-07	-8.7133e-08	9.8629e-08	1.9525e-07	2.1421e-08	-2.5565e-07	-1.9534e-07	-4.9873e-07	1.5213e-09
2.4482e-07	4.1283e-08	2.1763e-07	1.4341e-07	1.6757e-07	4.5302e-08	1.1624e-07	-5.5485e-08	-2e-08	-6.7943e-08	-2.6127e-08	1.2521e-07	-2.0722e-07	9.8361e-08	7.318e-08	4.5818e-08	1.1433e-08	7.036e-08	-3.9852e-10	-7.4281e-08	-2.4253e-07	-4.1619e-08	3.5245e-08	7.5721e-08	-2.7875e-07	-5.4181e-08	-1.5733e-07	1.8316e-08	-2.1439e-08	-2.6934e-08	6.4673e-08	-6.6831e-08	-1.3411e-07	-1.5196e-07	-8.5421e-08	9.6856e-08	1.9312e-07	2.2078e-08	-2.5356e-07	-1.9488e-07	-4.9595e-07	1.9936e-09
2.4439e-07	4.0077e-08	2.1638e-07	1.416e-07	1.675e-07	4.6297e-08	1.1638e-07	-5.6108e-08	-2.0229e-08	-6.7405e-08	-2.5549e-08	1.2661e-07	-2.0658e-07	9.8343e-08	6.9954e-08	4.6116e-08	1.0775e-08	7.029e-08	-7.6793e-10	-7.3675e-08	-2.3944e-07	-4.0599e-08	3.5976e-08	7.7301e-08	-2.7705e-07	-5.3011e-08	-1.5638e-07	1.7492e-08	-2.3233e-08	-2.6507e-08	6.5855e-08	-6.5702e-08	-1.3284e-07	-1.5142e-07	-8.3711e-08	9.5082e-08	1.9102e-07	2.2711e-08	-2.5143e-07	-1.944e-07	-4.931e-07	2.4498e-09
2.4396e-07	3.8862e-08	2.1513e-07	1.3983e-07	1.6749e-07	4.7257e-08	1.1655e-07	-5.6665e-08	-2.0359e-08	-6.6856e-08	-2.4956e-08	1.2791e-07	-2.0588e-07	9.8277e-08	6.665e-08	4.6401e-08	1.011e-08	7.0272e-08	-1.0989e-09	-7.3049e-08	-2.363e-07	-3.9597e-08	3.6666e-08	7.8869e-08	-2.7526e-07	-5.1805e-08	-1.5541e-07	1.6671e-08	-2.5037e-08	-2.6035e-08	6.7084e-08	-6.4519e-08	-1.316e-07	-1.5081e-07	-8.2003e-08	9.331e-08	1.8894e-07	2.3322e-08	-2.4927e-07	-1.9389e-07	-4.9019e-07	2.8871e-09
2.4351e-07	3.7641e-08	2.1387e-07	1.3811e-07	1.6753e-07	4.8181e-08	1.1677e-07	-5.7154e-08	-2.0392e-08	-6.6297e-08	-2.4348e-08	1.2909e-07	-2.0513e-07	9.8164e-08	6.3277e-08	4.6675e-08	9.4374e-09	7.0302e-08	-1.39e-09	-7.2403e-08	-2.3314e-07	-3.8616e-08	3.7315e-08	8.042e-08	-2.7339e-07	-5.0566e-08	-1.544e-07	1.5853e-08	-2.6851e-08	-2.5519e-08	6.8354e-08	-6.3285e-08	-1.3037e-07	-1.5014e-07	-8.0299e-08	9.1541e-08	1.8688e-07	2.3911e-08	-2.4707e-07	-1.9335e-07	-4.8722e-07	3.3029e-09
2.4306e-07	3.6414e-08	2.126e-07	1.3643e-07	1.6764e-07	4.907e-08	1.1701e-07	-5.7571e-08	-2.0328e-08	-6.5727e-08	-2.3726e-08	1.3016e-07	-2.0434e-07	9.8005e-08	5.9845e-08	4.6936e-08	8.7563e-09	7.0375e-08	-1.6399e-09	-7.1735e-08	-2.2993e-07	-3.7655e-08	3.7922e-08	8.195e-08	-2.7144e-07	-4.9296e-08	-1.5337e-07	1.504e-08	-2.8674e-08	-2.4959e-08	6.9656e-08	-6.2005e-08	-1.2917e-07	-1.494e-07	-7.8601e-08	8.9777e-08	1.8484e-07	2.448e-08	-2.4485e-07	-1.9277e-07	-4.8419e-07	3.695e-09
2.4259e-07	3.5182e-08	2.1133e-07	1.3481e-07	1.6779e-07	4.9922e-08	1.173e-07	-5.7913e-08	-2.0168e-08	-6.5148e-08	-2.3092e-08	1.3113e-07	-2.035e-07	9.7803e-08	5.6366e-08	4.7185e-08	8.0665e-09	7.0488e-08	-1.8475e-09	-7.1046e-08	-2.267e-07	-3.6715e-08	3.8487e-08	8.3453e-08	-2.6941e-07	-4.8e-08	-1.5231e-07	1.4235e-08	-3.0506e-08	-2.4356e-08	7.0983e-08	-6.0683e-08	-1.2799e-07	-1.4859e-07	-7.691e-08	8.8019e-08	1.8283e-07	2.5031e-08	-2.4259e-07	-1.9217e-07	-4.811e-07	4.0611e-09
2.4212e-07	3.3946e-08	2.1005e-07	1.3323e-07	1.68e-07	5.0737e-08	1.1761e-07	-5.8176e-08	-1.9913e-08	-6.456e-08	-2.2445e-08	1.3198e-07	-2.0261e-07	9.7561e-08	5.285e-08	4.7423e-08	7.3673e-09	7.0635e-08	-2.0121e-09	-7.0335e-08	-2.2343e-07	-3.5797e-08	3.901e-08	8.4923e-08	-2.673e-07	-4.6682e-08	-1.5122e-07	1.3439e-08	-3.2346e-08	-2.3712e-08	7.2329e-08	-5.932e-08	-1.2682e-07	-1.4771e-07	-7.5226e-08	8.6269e-08	1.8083e-07	2.5566e-08	-2.403e-07	-1.9153e-07	-4.7797e-07	4.3993e-09
2.4163e-07	3.2707e-08	2.0878e-07	1.3171e-07	1.6825e-07	5.1514e-08	1.1795e-07	-5.836e-08	-1.9567e-08	-6.3965e-08	-2.1788e-08	1.3271e-07	-2.0167e-07	9.7279e-08	4.9307e-08	4.7649e-08	6.6585e-09	7.0814e-08	-2.1332e-09	-6.9601e-08	-2.2014e-07	-3.4902e-08	3.9491e-08	8.6356e-08	-2.6512e-07	-4.5344e-08	-1.5011e-07	1.2655e-08	-3.4195e-08	-2.3027e-08	7.3684e-08	-5.7922e-08	-1.2567e-07	-1.4676e-07	-7.3552e-08	8.4529e-08	1.7886e-07	2.6087e-08	-2.3798e-07	-1.9086e-07	-4.7479e-07	4.708e-09
2.4113e-07	3.1466e-08	2.075e-07	1.3023e-07	1.6854e-07	5.2254e-08	1.1832e-07	-5.8461e-08	-1.9131e-08	-6.3364e-08	-2.112e-08	1.3333e-07	-2.0069e-07	9.6961e-08	4.5749e-08	4.7865e-08	5.9395e-09	7.1018e-08	-2.2105e-09	-6.8845e-08	-2.1682e-07	-3.4029e-08	3.9931e-08	8.7745e-08	-2.6287e-07	-4.399e-08	-1.4896e-07	1.1883e-08	-3.605e-08	-2.2302e-08	7.5043e-08	-5.6492e-08	-1.2454e-07	-1.4575e-07	-7.1887e-08	8.2799e-08	1.769e-07	2.6596e-08	-2.3564e-07	-1.9016e-07	-4.7156e-07	4.9854e-09
2.4061e-07	3.0224e-08	2.0623e-07	1.2881e-07	1.6888e-07	5.2955e-08	1.1872e-07	-5.8478e-08	-1.8606e-08	-6.276e-08	-2.0444e-08	1.3383e-07	-1.9966e-07	9.6609e-08	4.2185e-08	4.8071e-08	5.21e-09	7.1245e-08	-2.244e-09	-6.8065e-08	-2.1348e-07	-3.3178e-08	4.033e-08	8.9087e-08	-2.6055e-07	-4.2624e-08	-1.4779e-07	1.1125e-08	-3.7912e-08	-2.1539e-08	7.6396e-08	-5.5032e-08	-1.2342e-07	-1.4467e-07	-7.0233e-08	8.1083e-08	1.7497e-07	2.7096e-08	-2.3328e-07	-1.8943e-07	-4.6829e-07	5.2305e-09
2.4008e-07	2.8983e-08	2.0497e-07	1.2744e-07	1.6925e-07	5.3619e-08	1.1914e-07	-5.8411e-08	-1.7997e-08	-6.2154e-08	-1.9759e-08	1.3422e-07	-1.9859e-07	9.6225e-08	3.8626e-08	4.8268e-08	4.4697e-09	7.1491e-08	-2.2339e-09	-6.7261e-08	-2.1012e-07	-3.2351e-08	4.0687e-08	9.0376e-08	-2.5816e-07	-4.1248e-08	-1.466e-07	1.0384e-08	-3.9779e-08	-2.0739e-08	7.7736e-08	-5.3547e-08	-1.2231e-07	-1.4353e-07	-6.8592e-08	7.938e-08	1.7305e-07	2.759e-08	-2.3089e-07	-1.8866e-07	-4.6498e-07	5.4422e-09
2.3953e-07	2.7744e-08	2.0371e-07	1.2612e-07	1.6965e-07	5.4244e-08	1.1958e-07	-5.8258e-08	-1.7306e-08	-6.1549e-08	-1.9067e-08	1.3448e-07	-1.9748e-07	9.5811e-08	3.5082e-08	4.8456e-08	3.7184e-09	7.1751e-08	-2.1809e-09	-6.6434e-08	-2.0674e-07	-3.1547e-08	4.1006e-08	9.1606e-08	-2.557e-07	-3.9867e-08	-1.4538e-07	9.6599e-09	-4.1651e-08	-1.9902e-08	7.9055e-08	-5.204e-08	-1.2122e-07	-1.4232e-07	-6.6962e-08	7.7692e-08	1.7115e-07	2.8079e-08	-2.2847e-07	-1.8787e-07	-4.6163e-07	5.6196e-09
2.3896e-07	2.6507e-08	2.0247e-07	1.2485e-07	1.7007e-07	5.4832e-08	1.2004e-07	-5.8019e-08	-1.6535e-08	-6.0949e-08	-1.8369e-08	1.3463e-07	-1.9632e-07	9.537e-08	3.1564e-08	4.8638e-08	2.9558e-09	7.2022e-08	-2.0855e-09	-6.5583e-08	-2.0334e-07	-3.0765e-08	4.1285e-08	9.2772e-08	-2.5318e-07	-3.8483e-08	-1.4413e-07	8.9556e-09	-4.3524e-08	-1.903e-08	8.0346e-08	-5.0515e-08	-1.2014e-07	-1.4105e-07	-6.5345e-08	7.6022e-08	1.6926e-07	2.8566e-08	-2.2604e-07	-1.8704e-07	-4.5824e-07	5.7623e-09
2.3838e-07	2.5274e-08	2.0123e-07	1.2364e-07	1.7053e-07	5.5382e-08	1.2052e-07	-5.7695e-08	-1.5689e-08	-6.0355e-08	-1.7666e-08	1.3466e-07	-1.9512e-07	9.4905e-08	2.8081e-08	4.8813e-08	2.1818e-09	7.23e-08	-1.949e-09	-6.4708e-08	-1.9993e-07	-3.0006e-08	4.1526e-08	9.3871e-08	-2.506e-07	-3.7099e-08	-1.4285e-07	8.2722e-09	-4.5399e-08	-1.8125e-08	8.1601e-08	-4.8974e-08	-1.1906e-07	-1.3973e-07	-6.3742e-08	7.437e-08	1.6739e-07	2.9055e-08	-2.2359e-07	-1.8619e-07	-4.5482e-07	5.8698e-09
2.3777e-07	2.4047e-08	2.0001e-07	1.2247e-07	1.71e-07	5.5894e-08	1.2101e-07	-5.7285e-08	-1.477e-08	-5.9772e-08	-1.6958e-08	1.3458e-07	-1.9388e-07	9.4418e-08	2.4642e-08	4.8984e-08	1.3963e-09	7.2582e-08	-1.7724e-09	-6.3809e-08	-1.9651e-07	-2.9268e-08	4.1729e-08	9.4896e-08	-2.4796e-07	-3.5718e-08	-1.4155e-07	7.6112e-09	-4.7274e-08	-1.7186e-08	8.2813e-08	-4.7421e-08	-1.18e-07	-1.3834e-07	-6.2153e-08	7.2737e-08	1.6553e-07	2.9549e-08	-2.2112e-07	-1.853e-07	-4.5137e-07	5.9422e-09
2.3715e-07	2.2826e-08	1.9881e-07	1.2135e-07	1.7148e-07	5.6369e-08	1.2152e-07	-5.6791e-08	-1.3783e-08	-5.9203e-08	-1.6247e-08	1.3437e-07	-1.926e-07	9.3912e-08	2.1256e-08	4.9151e-08	5.9944e-10	7.2864e-08	-1.5574e-09	-6.2885e-08	-1.9308e-07	-2.8552e-08	4.1896e-08	9.5843e-08	-2.4525e-07	-3.4344e-08	-1.4022e-07	6.9738e-09	-4.9146e-08	-1.6216e-08	8.3974e-08	-4.586e-08	-1.1694e-07	-1.369e-07	-6.0578e-08	7.1125e-08	1.6368e-07	3.0049e-08	-2.1863e-07	-1.8439e-07	-4.4788e-07	5.9795e-09
2.365e-07	2.1613e-08	1.9762e-07	1.2029e-07	1.7198e-07	5.6808e-08	1.2203e-07	-5.6214e-08	-1.2732e-08	-5.8651e-08	-1.5534e-08	1.3405e-07	-1.9127e-07	9.3389e-08	1.7933e-08	4.9316e-08	-2.0873e-10	7.3145e-08	-1.3058e-09	-6.1937e-08	-1.8964e-07	-2.7857e-08	4.2029e-08	9.6708e-08	-2.425e-07	-3.2979e-08	-1.3887e-07	6.3615e-09	-5.1013e-08	-1.5216e-08	8.5078e-08	-4.4292e-08	-1.1589e-07	-1.354e-07	-5.9017e-08	6.9535e-08	1.6184e-07	3.056e-08	-2.1612e-07	-1.8345e-07	-4.4436e-07	5.982e-09
2.3583e-07	2.0409e-08	1.9645e-07	1.1927e-07	1.7248e-07	5.7211e-08	1.2256e-07	-5.5555e-08	-1.1619e-08	-5.812e-08	-1.4818e-08	1.3362e-07	-1.8991e-07	9.2852e-08	1.468e-08	4.948e-08	-1.028e-09	7.3421e-08	-1.0194e-09	-6.0965e-08	-1.862e-07	-2.7181e-08	4.2126e-08	9.7487e-08	-2.3968e-07	-3.1627e-08	-1.3749e-07	5.7756e-09	-5.2875e-08	-1.4186e-08	8.6117e-08	-4.2722e-08	-1.1484e-07	-1.3385e-07	-5.7469e-08	6.7967e-08	1.6001e-07	3.1085e-08	-2.136e-07	-1.8249e-07	-4.4081e-07	5.95e-09
2.3514e-07	1.9216e-08	1.9531e-07	1.183e-07	1.7298e-07	5.7579e-08	1.2309e-07	-5.4816e-08	-1.045e-08	-5.7614e-08	-1.4102e-08	1.3308e-07	-1.8851e-07	9.2303e-08	1.1506e-08	4.9645e-08	-1.858e-09	7.369e-08	-7.0062e-10	-5.9968e-08	-1.8275e-07	-2.6524e-08	4.2191e-08	9.8174e-08	-2.3682e-07	-3.0289e-08	-1.3609e-07	5.2173e-09	-5.4727e-08	-1.3129e-08	8.7085e-08	-4.1153e-08	-1.138e-07	-1.3226e-07	-5.5936e-08	6.6424e-08	1.5818e-07	3.1626e-08	-2.1106e-07	-1.815e-07	-4.3723e-07	5.884e-09
2.3443e-07	1.8034e-08	1.9419e-07	1.1738e-07	1.7349e-07	5.7912e-08	1.2363e-07	-5.4e-08	-9.2289e-09	-5.7137e-08	-1.3385e-08	1.3242e-07	-1.8706e-07	9.1745e-08	8.4177e-09	4.9812e-08	-2.6985e-09	7.3951e-08	-3.5185e-10	-5.8948e-08	-1.793e-07	-2.5885e-08	4.2223e-08	9.8766e-08	-2.3391e-07	-2.8968e-08	-1.3466e-07	4.6877e-09	-5.6568e-08	-1.2045e-08	8.7976e-08	-3.9587e-08	-1.1276e-07	-1.3062e-07	-5.4417e-08	6.4906e-08	1.5635e-07	3.2188e-08	-2.0851e-07	-1.8048e-07	-4.3362e-07	5.7848e-09
2.3369e-07	1.6866e-08	1.931e-07	1.165e-07	1.7399e-07	5.8212e-08	1.2416e-07	-5.3109e-08	-7.9594e-09	-5.6692e-08	-1.2669e-08	1.3166e-07	-1.8558e-07	9.118e-08	5.4222e-09	4.9983e-08	-3.5488e-09	7.4203e-08	2.4243e-11	-5.7903e-08	-1.7585e-07	-2.5263e-08	4.2224e-08	9.926e-08	-2.3094e-07	-2.7667e-08	-1.3321e-07	4.188e-09	-5.8396e-08	-1.0935e-08	8.8784e-08	-3.8027e-08	-1.1172e-07	-1.2893e-07	-5.2911e-08	6.3413e-08	1.5453e-07	3.2772e-08	-2.0595e-07	-1.7944e-07	-4.2998e-07	5.6531e-09
2.3293e-07	1.5712e-08	1.9204e-07	1.1567e-07	1.7448e-07	5.8479e-08	1.247e-07	-5.2146e-08	-6.6461e-09	-5.6284e-08	-1.1955e-08	1.3079e-07	-1.8406e-07	9.0611e-08	2.5261e-09	5.016e-08	-4.4084e-09	7.4444e-08	4.2477e-10	-5.6835e-08	-1.7241e-07	-2.4655e-08	4.2195e-08	9.9652e-08	-2.2793e-07	-2.6388e-08	-1.3173e-07	3.7192e-09	-6.0207e-08	-9.8022e-09	8.9503e-08	-3.6477e-08	-1.1068e-07	-1.2721e-07	-5.1417e-08	6.1947e-08	1.527e-07	3.3384e-08	-2.0338e-07	-1.7838e-07	-4.2631e-07	5.4895e-09
2.3214e-07	1.4574e-08	1.9101e-07	1.1489e-07	1.7496e-07	5.8715e-08	1.2524e-07	-5.1114e-08	-5.2934e-09	-5.5915e-08	-1.1242e-08	1.2981e-07	-1.8251e-07	9.0039e-08	-2.648e-10	5.0342e-08	-5.2765e-09	7.4675e-08	8.4666e-10	-5.5743e-08	-1.6896e-07	-2.4062e-08	4.2137e-08	9.9938e-08	-2.2488e-07	-2.5134e-08	-1.3023e-07	3.2822e-09	-6.2e-08	-8.6464e-09	9.0128e-08	-3.4938e-08	-1.0964e-07	-1.2544e-07	-4.9936e-08	6.0507e-08	1.5088e-07	3.4025e-08	-2.0079e-07	-1.7731e-07	-4.2262e-07	5.295e-09
2.3133e-07	1.3453e-08	1.9001e-07	1.1414e-07	1.7542e-07	5.892e-08	1.2577e-07	-5.0017e-08	-3.906e-09	-5.559e-08	-1.0532e-08	1.2873e-07	-1.8091e-07	8.9468e-08	-2.945e-09	5.0533e-08	-6.1524e-09	7.4894e-08	1.2866e-09	-5.4629e-08	-1.6553e-07	-2.348e-08	4.2049e-08	1.0012e-07	-2.2179e-07	-2.3906e-08	-1.2871e-07	2.8781e-09	-6.3772e-08	-7.4693e-09	9.0653e-08	-3.3415e-08	-1.0859e-07	-1.2365e-07	-4.8465e-08	5.9095e-08	1.4904e-07	3.4699e-08	-1.982e-07	-1.7621e-07	-4.1889e-07	5.0702e-09
2.3049e-07	1.235e-08	1.8905e-07	1.1344e-07	1.7587e-07	5.9097e-08	1.2629e-07	-4.8857e-08	-2.4881e-09	-5.5312e-08	-9.825e-09	1.2756e-07	-1.7928e-07	8.8898e-08	-5.5097e-09	5.0733e-08	-7.0352e-09	7.5103e-08	1.7413e-09	-5.3492e-08	-1.621e-07	-2.2907e-08	4.1934e-08	1.0018e-07	-2.1865e-07	-2.2706e-08	-1.2716e-07	2.5076e-09	-6.5519e-08	-6.2725e-09	9.1074e-08	-3.1908e-08	-1.0754e-07	-1.2182e-07	-4.7005e-08	5.7709e-08	1.4721e-07	3.541e-08	-1.956e-07	-1.7509e-07	-4.1513e-07	4.8162e-09
2.2963e-07	1.1267e-08	1.8813e-07	1.1278e-07	1.763e-07	5.9246e-08	1.2681e-07	-4.764e-08	-1.0445e-09	-5.5084e-08	-9.1215e-09	1.2629e-07	-1.7761e-07	8.8333e-08	-7.9545e-09	5.0944e-08	-7.9238e-09	7.5302e-08	2.2068e-09	-5.2334e-08	-1.5868e-07	-2.2343e-08	4.1791e-08	1.0014e-07	-2.1548e-07	-2.1537e-08	-1.2559e-07	2.1716e-09	-6.724e-08	-5.0575e-09	9.1386e-08	-3.0422e-08	-1.0649e-07	-1.1997e-07	-4.5553e-08	5.6351e-08	1.4536e-07	3.616e-08	-1.9299e-07	-1.7396e-07	-4.1135e-07	4.5336e-09
2.2874e-07	1.0206e-08	1.8724e-07	1.1215e-07	1.767e-07	5.9368e-08	1.2732e-07	-4.6368e-08	4.2057e-10	-5.491e-08	-8.4218e-09	1.2493e-07	-1.759e-07	8.7774e-08	-1.0276e-08	5.1167e-08	-8.8172e-09	7.5493e-08	2.6796e-09	-5.1154e-08	-1.5527e-07	-2.1786e-08	4.1622e-08	9.9979e-08	-2.1227e-07	-2.0399e-08	-1.24e-07	1.8707e-09	-6.8931e-08	-3.8257e-09	9.1586e-08	-2.8959e-08	-1.0543e-07	-1.1809e-07	-4.4108e-08	5.5019e-08	1.435e-07	3.6953e-08	-1.9038e-07	-1.7281e-07	-4.0753e-07	4.2232e-09
2.2782e-07	9.1664e-09	1.8639e-07	1.1156e-07	1.7707e-07	5.9466e-08	1.2781e-07	-4.5047e-08	1.9025e-09	-5.4791e-08	-7.7264e-09	1.2348e-07	-1.7416e-07	8.7223e-08	-1.247e-08	5.1403e-08	-9.7142e-09	7.5677e-08	3.1556e-09	-4.9955e-08	-1.5187e-07	-2.1231e-08	4.1427e-08	9.9703e-08	-2.0904e-07	-1.9295e-08	-1.2238e-07	1.6056e-09	-7.0589e-08	-2.5789e-09	9.1669e-08	-2.7521e-08	-1.0437e-07	-1.1619e-07	-4.2669e-08	5.3714e-08	1.4163e-07	3.7792e-08	-1.8776e-07	-1.7165e-07	-4.0368e-07	3.8857e-09
2.2688e-07	8.1507e-09	1.8558e-07	1.1101e-07	1.7742e-07	5.9541e-08	1.2829e-07	-4.3681e-08	3.3968e-09	-5.473e-08	-7.0354e-09	1.2195e-07	-1.7238e-07	8.6681e-08	-1.4535e-08	5.1653e-08	-1.0613e-08	7.5856e-08	3.6307e-09	-4.8736e-08	-1.4849e-07	-2.0679e-08	4.1206e-08	9.931e-08	-2.0577e-07	-1.8225e-08	-1.2074e-07	1.377e-09	-7.2213e-08	-1.3186e-09	9.1632e-08	-2.6111e-08	-1.033e-07	-1.1428e-07	-4.1234e-08	5.2434e-08	1.3975e-07	3.8679e-08	-1.8514e-07	-1.7048e-07	-3.998e-07	3.5217e-09
2.2591e-07	7.1599e-09	1.8482e-07	1.1049e-07	1.7774e-07	5.9593e-08	1.2876e-07	-4.2273e-08	4.8991e-09	-5.473e-08	-6.3491e-09	1.2034e-07	-1.7057e-07	8.615e-08	-1.6468e-08	5.1918e-08	-1.1514e-08	7.6033e-08	4.1008e-09	-4.7499e-08	-1.4512e-07	-2.0126e-08	4.0961e-08	9.8798e-08	-2.0247e-07	-1.7191e-08	-1.1908e-07	1.1853e-09	-7.3799e-08	-4.6588e-11	9.1471e-08	-2.4732e-08	-1.0223e-07	-1.1235e-07	-3.98e-08	5.1179e-08	1.3785e-07	3.9617e-08	-1.8251e-07	-1.693e-07	-3.9589e-07	3.1317e-09
2.2492e-07	6.1952e-09	1.841e-07	1.1e-07	1.7803e-07	5.9626e-08	1.292e-07	-4.083e-08	6.4051e-09	-5.4791e-08	-5.6675e-09	1.1865e-07	-1.6872e-07	8.5632e-08	-1.8268e-08	5.2198e-08	-1.2414e-08	7.621e-08	4.5616e-09	-4.6245e-08	-1.4176e-07	-1.957e-08	4.069e-08	9.8168e-08	-1.9915e-07	-1.6193e-08	-1.174e-07	1.031e-09	-7.5344e-08	1.2354e-09	9.1185e-08	-2.3385e-08	-1.0114e-07	-1.1041e-07	-3.8366e-08	4.9948e-08	1.3593e-07	4.0609e-08	-1.7988e-07	-1.6811e-07	-3.9194e-07	2.7164e-09
2.239e-07	5.2578e-09	1.8342e-07	1.0955e-07	1.7829e-07	5.964e-08	1.2963e-07	-3.9355e-08	7.9106e-09	-5.4916e-08	-4.9909e-09	1.169e-07	-1.6683e-07	8.5127e-08	-1.9935e-08	5.2495e-08	-1.3312e-08	7.6389e-08	5.0087e-09	-4.4975e-08	-1.3842e-07	-1.9008e-08	4.0394e-08	9.742e-08	-1.958e-07	-1.5233e-08	-1.157e-07	9.1446e-10	-7.6847e-08	2.5254e-09	9.077e-08	-2.2074e-08	-1.0005e-07	-1.0846e-07	-3.693e-08	4.874e-08	1.3399e-07	4.1658e-08	-1.7725e-07	-1.6691e-07	-3.8796e-07	2.2762e-09
2.2286e-07	4.3488e-09	1.8279e-07	1.0912e-07	1.7851e-07	5.9637e-08	1.3004e-07	-3.7853e-08	9.4114e-09	-5.5105e-08	-4.319e-09	1.1507e-07	-1.6491e-07	8.4637e-08	-2.1466e-08	5.2809e-08	-1.4207e-08	7.6574e-08	5.4378e-09	-4.3692e-08	-1.351e-07	-1.8438e-08	4.0074e-08	9.6553e-08	-1.9243e-07	-1.431e-08	-1.1398e-07	8.3593e-10	-7.8304e-08	3.8216e-09	9.0225e-08	-2.08e-08	-9.8951e-08	-1.0652e-07	-3.5489e-08	4.7552e-08	1.3203e-07	4.2766e-08	-1.7462e-07	-1.6571e-07	-3.8395e-07	1.8117e-09
2.2179e-07	3.4694e-09	1.822e-07	1.0872e-07	1.787e-07	5.9619e-08	1.3043e-07	-3.633e-08	1.0903e-08	-5.5359e-08	-3.6519e-09	1.1319e-07	-1.6295e-07	8.4164e-08	-2.2863e-08	5.3141e-08	-1.5097e-08	7.6767e-08	5.8444e-09	-4.2395e-08	-1.3179e-07	-1.7857e-08	3.973e-08	9.557e-08	-1.8904e-07	-1.3425e-08	-1.1224e-07	7.9562e-10	-7.9714e-08	5.1219e-09	8.9547e-08	-1.9566e-08	-9.7843e-08	-1.0457e-07	-3.4041e-08	4.6384e-08	1.3005e-07	4.3935e-08	-1.7199e-07	-1.6451e-07	-3.799e-07	1.3233e-09
2.207e-07	2.6206e-09	1.8166e-07	1.0835e-07	1.7885e-07	5.9587e-08	1.3079e-07	-3.479e-08	1.2383e-08	-5.5677e-08	-2.9893e-09	1.1124e-07	-1.6096e-07	8.3707e-08	-2.4127e-08	5.349e-08	-1.5981e-08	7.6971e-08	6.2242e-09	-4.1088e-08	-1.285e-07	-1.7263e-08	3.9361e-08	9.447e-08	-1.8564e-07	-1.2578e-08	-1.1048e-07	7.9363e-10	-8.1074e-08	6.4244e-09	8.8736e-08	-1.8374e-08	-9.6725e-08	-1.0262e-07	-3.2583e-08	4.5234e-08	1.2804e-07	4.5168e-08	-1.6936e-07	-1.633e-07	-3.7582e-07	8.1174e-10
2.1958e-07	1.8034e-09	1.8117e-07	1.0801e-07	1.7897e-07	5.9544e-08	1.3113e-07	-3.3238e-08	1.3846e-08	-5.6059e-08	-2.3311e-09	1.0925e-07	-1.5893e-07	8.3268e-08	-2.5258e-08	5.3856e-08	-1.6857e-08	7.7189e-08	6.5727e-09	-3.9772e-08	-1.2523e-07	-1.6653e-08	3.8968e-08	9.3255e-08	-1.8222e-07	-1.1768e-08	-1.087e-07	8.2996e-10	-8.2382e-08	7.7269e-09	8.779e-08	-1.7227e-08	-9.5598e-08	-1.0069e-07	-3.1114e-08	4.4099e-08	1.2601e-07	4.6465e-08	-1.6674e-07	-1.6209e-07	-3.717e-07	2.7748e-10
2.1844e-07	1.0188e-09	1.8071e-07	1.0768e-07	1.7906e-07	5.9491e-08	1.3144e-07	-3.1678e-08	1.5288e-08	-5.6504e-08	-1.6768e-09	1.0721e-07	-1.5687e-07	8.2847e-08	-2.6258e-08	5.4239e-08	-1.7724e-08	7.7424e-08	6.8856e-09	-3.8449e-08	-1.2198e-07	-1.6025e-08	3.855e-08	9.1928e-08	-1.7879e-07	-1.0997e-08	-1.069e-07	9.045e-10	-8.3637e-08	9.0273e-09	8.6707e-08	-1.6126e-08	-9.4461e-08	-9.8757e-08	-2.9631e-08	4.2978e-08	1.2394e-07	4.7829e-08	-1.6411e-07	-1.6088e-07	-3.6754e-07	-2.7874e-10
2.1728e-07	2.6764e-10	1.8031e-07	1.0738e-07	1.791e-07	5.9429e-08	1.3173e-07	-3.0117e-08	1.6708e-08	-5.701e-08	-1.0262e-09	1.0512e-07	-1.5477e-07	8.2445e-08	-2.7129e-08	5.464e-08	-1.858e-08	7.7677e-08	7.1586e-09	-3.7121e-08	-1.1875e-07	-1.5377e-08	3.8109e-08	9.0491e-08	-1.7535e-07	-1.0262e-08	-1.0509e-07	1.017e-09	-8.4836e-08	1.0323e-08	8.5489e-08	-1.5074e-08	-9.3315e-08	-9.684e-08	-2.8132e-08	4.1869e-08	1.2186e-07	4.926e-08	-1.6149e-07	-1.5968e-07	-3.6334e-07	-8.5618e-10
2.161e-07	-4.4919e-10	1.7994e-07	1.071e-07	1.7911e-07	5.9361e-08	1.3198e-07	-2.8557e-08	1.81e-08	-5.7576e-08	-3.7868e-10	1.03e-07	-1.5263e-07	8.2062e-08	-2.7874e-08	5.5057e-08	-1.9423e-08	7.7951e-08	7.3876e-09	-3.579e-08	-1.1553e-07	-1.4705e-08	3.7642e-08	8.8946e-08	-1.719e-07	-9.5627e-09	-1.0326e-07	1.1672e-09	-8.5978e-08	1.1613e-08	8.4135e-08	-1.4071e-08	-9.2159e-08	-9.4938e-08	-2.6615e-08	4.0769e-08	1.1974e-07	5.0761e-08	-1.5887e-07	-1.5847e-07	-3.5911e-07	-1.454e-09
2.1489e-07	-1.1309e-09	1.7962e-07	1.0684e-07	1.7909e-07	5.9287e-08	1.3221e-07	-2.7005e-08	1.9461e-08	-5.82e-08	2.6613e-10	1.0085e-07	-1.5046e-07	8.1699e-08	-2.8496e-08	5.5489e-08	-2.0253e-08	7.8248e-08	7.5684e-09	-3.4459e-08	-1.1233e-07	-1.4008e-08	3.7151e-08	8.7298e-08	-1.6845e-07	-8.8989e-09	-1.0142e-07	1.3546e-09	-8.7062e-08	1.2893e-08	8.2646e-08	-1.312e-08	-9.0993e-08	-9.3054e-08	-2.5077e-08	3.9677e-08	1.1759e-07	5.2331e-08	-1.5625e-07	-1.5727e-07	-3.5483e-07	-2.0711e-09
2.1367e-07	-1.777e-09	1.7934e-07	1.0659e-07	1.7903e-07	5.921e-08	1.3241e-07	-2.5464e-08	2.079e-08	-5.8877e-08	9.0885e-10	9.8666e-08	-1.4826e-07	8.1356e-08	-2.8999e-08	5.5937e-08	-2.1068e-08	7.857e-08	7.6973e-09	-3.313e-08	-1.0915e-07	-1.3283e-08	3.6635e-08	8.5548e-08	-1.6499e-07	-8.2691e-09	-9.9556e-08	1.5785e-09	-8.8087e-08	1.4162e-08	8.1021e-08	-1.2223e-08	-8.9816e-08	-9.1189e-08	-2.3517e-08	3.8589e-08	1.1541e-07	5.3972e-08	-1.5363e-07	-1.5607e-07	-3.5051e-07	-2.7065e-09
2.1242e-07	-2.3866e-09	1.791e-07	1.0636e-07	1.7894e-07	5.9131e-08	1.3257e-07	-2.3938e-08	2.2082e-08	-5.9605e-08	1.5501e-09	9.6461e-08	-1.4602e-07	8.1033e-08	-2.9387e-08	5.6397e-08	-2.1866e-08	7.8918e-08	7.7703e-09	-3.1806e-08	-1.0599e-07	-1.2528e-08	3.6094e-08	8.3701e-08	-1.6153e-07	-7.6718e-09	-9.7681e-08	1.8383e-09	-8.9051e-08	1.5417e-08	7.9262e-08	-1.1381e-08	-8.8628e-08	-8.9346e-08	-2.1932e-08	3.7503e-08	1.132e-07	5.5682e-08	-1.5102e-07	-1.5488e-07	-3.4615e-07	-3.3588e-09
2.1116e-07	-2.9594e-09	1.789e-07	1.0615e-07	1.788e-07	5.9051e-08	1.3271e-07	-2.2432e-08	2.3336e-08	-6.038e-08	2.1905e-09	9.4237e-08	-1.4374e-07	8.0729e-08	-2.9665e-08	5.6871e-08	-2.2647e-08	7.9294e-08	7.7841e-09	-3.049e-08	-1.0284e-07	-1.1742e-08	3.5529e-08	8.1761e-08	-1.5807e-07	-7.1056e-09	-9.5793e-08	2.133e-09	-8.9955e-08	1.6656e-08	7.7371e-08	-1.0595e-08	-8.7429e-08	-8.7527e-08	-2.0322e-08	3.6417e-08	1.1095e-07	5.7462e-08	-1.4841e-07	-1.5369e-07	-3.4175e-07	-4.0267e-09
2.0988e-07	-3.4949e-09	1.7873e-07	1.0595e-07	1.7864e-07	5.8971e-08	1.3281e-07	-2.0949e-08	2.4549e-08	-6.1197e-08	2.8308e-09	9.1999e-08	-1.4143e-07	8.0444e-08	-2.9836e-08	5.7354e-08	-2.341e-08	7.9699e-08	7.7351e-09	-2.9183e-08	-9.9708e-08	-1.0922e-08	3.4938e-08	7.9733e-08	-1.5461e-07	-6.5687e-09	-9.3892e-08	2.4617e-09	-9.0796e-08	1.7877e-08	7.5349e-08	-9.8655e-09	-8.6219e-08	-8.5733e-08	-1.8685e-08	3.5329e-08	1.0868e-07	5.9312e-08	-1.458e-07	-1.525e-07	-3.3731e-07	-4.7085e-09
2.0858e-07	-3.9927e-09	1.7859e-07	1.0576e-07	1.7844e-07	5.8894e-08	1.3287e-07	-1.9494e-08	2.5718e-08	-6.2053e-08	3.4718e-09	8.9751e-08	-1.3909e-07	8.0179e-08	-2.9907e-08	5.7847e-08	-2.4153e-08	8.0133e-08	7.6204e-09	-2.789e-08	-9.6591e-08	-1.0068e-08	3.4323e-08	7.7621e-08	-1.5115e-07	-6.0593e-09	-9.1979e-08	2.8232e-09	-9.1576e-08	1.9076e-08	7.3198e-08	-9.1946e-09	-8.4996e-08	-8.3965e-08	-1.7019e-08	3.4237e-08	1.0637e-07	6.123e-08	-1.432e-07	-1.5132e-07	-3.3282e-07	-5.4027e-09
2.0726e-07	-4.4527e-09	1.7848e-07	1.0558e-07	1.7821e-07	5.882e-08	1.3291e-07	-1.8068e-08	2.6842e-08	-6.2942e-08	4.1141e-09	8.7498e-08	-1.3671e-07	7.9931e-08	-2.9884e-08	5.8346e-08	-2.4876e-08	8.0597e-08	7.437e-09	-2.6612e-08	-9.3487e-08	-9.1759e-09	3.3683e-08	7.5431e-08	-1.477e-07	-5.5753e-09	-9.0054e-08	3.2161e-09	-9.2295e-08	2.0251e-08	7.0921e-08	-8.5825e-09	-8.3759e-08	-8.2225e-08	-1.5323e-08	3.3138e-08	1.0403e-07	6.3216e-08	-1.4059e-07	-1.5013e-07	-3.2829e-07	-6.1073e-09
2.0592e-07	-4.8747e-09	1.784e-07	1.054e-07	1.7794e-07	5.875e-08	1.329e-07	-1.6676e-08	2.792e-08	-6.3858e-08	4.7587e-09	8.5242e-08	-1.343e-07	7.9702e-08	-2.9773e-08	5.885e-08	-2.5577e-08	8.1091e-08	7.1823e-09	-2.5352e-08	-9.0396e-08	-8.2464e-09	3.3018e-08	7.3168e-08	-1.4426e-07	-5.1146e-09	-8.812e-08	3.639e-09	-9.2951e-08	2.14e-08	6.852e-08	-8.0297e-09	-8.2509e-08	-8.0514e-08	-1.3597e-08	3.2031e-08	1.0165e-07	6.5266e-08	-1.3799e-07	-1.4895e-07	-3.2372e-07	-6.8205e-09
2.0457e-07	-5.2586e-09	1.7834e-07	1.0524e-07	1.7765e-07	5.8685e-08	1.3287e-07	-1.5321e-08	2.8948e-08	-6.4797e-08	5.4062e-09	8.2989e-08	-1.3186e-07	7.949e-08	-2.9579e-08	5.9357e-08	-2.6257e-08	8.1615e-08	6.8539e-09	-2.4114e-08	-8.7317e-08	-7.2779e-09	3.2328e-08	7.0838e-08	-1.4082e-07	-4.6748e-09	-8.6176e-08	4.0903e-09	-9.3547e-08	2.252e-08	6.5999e-08	-7.5366e-09	-8.1243e-08	-7.8832e-08	-1.1839e-08	3.0914e-08	9.9243e-08	6.738e-08	-1.3539e-07	-1.4777e-07	-3.1909e-07	-7.5401e-09
2.0321e-07	-5.6045e-09	1.783e-07	1.0508e-07	1.7732e-07	5.8626e-08	1.3279e-07	-1.4003e-08	2.9927e-08	-6.5751e-08	6.0574e-09	8.074e-08	-1.2938e-07	7.9294e-08	-2.931e-08	5.9863e-08	-2.6915e-08	8.2169e-08	6.4498e-09	-2.2899e-08	-8.4248e-08	-6.2697e-09	3.1615e-08	6.8446e-08	-1.3739e-07	-4.2536e-09	-8.4224e-08	4.5682e-09	-9.4082e-08	2.3609e-08	6.336e-08	-7.1032e-09	-7.9962e-08	-7.718e-08	-1.0049e-08	2.9785e-08	9.6804e-08	6.9555e-08	-1.3279e-07	-1.4658e-07	-3.1443e-07	-8.264e-09
2.0183e-07	-5.9126e-09	1.7828e-07	1.0493e-07	1.7696e-07	5.8574e-08	1.3268e-07	-1.2727e-08	3.0854e-08	-6.6716e-08	6.7133e-09	7.85e-08	-1.2688e-07	7.9113e-08	-2.8973e-08	6.0366e-08	-2.755e-08	8.2752e-08	5.9682e-09	-2.1712e-08	-8.1189e-08	-5.2212e-09	3.0878e-08	6.5999e-08	-1.3398e-07	-3.8482e-09	-8.2264e-08	5.0709e-09	-9.4558e-08	2.4665e-08	6.0609e-08	-6.7293e-09	-7.8663e-08	-7.5557e-08	-8.2271e-09	2.8642e-08	9.4333e-08	7.1787e-08	-1.3018e-07	-1.4539e-07	-3.0971e-07	-8.9899e-09
2.0043e-07	-6.1831e-09	1.7826e-07	1.0478e-07	1.7657e-07	5.853e-08	1.3253e-07	-1.1493e-08	3.173e-08	-6.7684e-08	7.3747e-09	7.6272e-08	-1.2434e-07	7.8946e-08	-2.8575e-08	6.0864e-08	-2.8163e-08	8.3363e-08	5.4076e-09	-2.0553e-08	-7.8138e-08	-4.1321e-09	3.0118e-08	6.3503e-08	-1.3057e-07	-3.4561e-09	-8.0297e-08	5.5963e-09	-9.4976e-08	2.5684e-08	5.7748e-08	-6.4145e-09	-7.7346e-08	-7.3965e-08	-6.3722e-09	2.7486e-08	9.1833e-08	7.4075e-08	-1.2758e-07	-1.442e-07	-3.0495e-07	-9.7153e-09
1.9902e-07	-6.4163e-09	1.7826e-07	1.0463e-07	1.7616e-07	5.8493e-08	1.3235e-07	-1.0304e-08	3.2553e-08	-6.8648e-08	8.0424e-09	7.4057e-08	-1.2177e-07	7.8793e-08	-2.8125e-08	6.1353e-08	-2.8752e-08	8.4001e-08	4.7669e-09	-1.9427e-08	-7.5094e-08	-3.0023e-09	2.9335e-08	6.0966e-08	-1.2718e-07	-3.0744e-09	-7.8325e-08	6.1423e-09	-9.5336e-08	2.6664e-08	5.4781e-08	-6.1581e-09	-7.601e-08	-7.2402e-08	-4.4845e-09	2.6314e-08	8.9304e-08	7.6413e-08	-1.2497e-07	-1.4299e-07	-3.0013e-07	-1.0438e-08
1.976e-07	-6.6128e-09	1.7826e-07	1.0448e-07	1.7572e-07	5.8465e-08	1.3213e-07	-9.1595e-09	3.3322e-08	-6.9603e-08	8.7173e-09	7.1859e-08	-1.1918e-07	7.865e-08	-2.7628e-08	6.1829e-08	-2.9319e-08	8.4665e-08	4.0451e-09	-1.8335e-08	-7.2057e-08	-1.832e-09	2.853e-08	5.8393e-08	-1.238e-07	-2.7001e-09	-7.6347e-08	6.7065e-09	-9.5642e-08	2.7603e-08	5.1715e-08	-5.9593e-09	-7.4652e-08	-7.0867e-08	-2.5643e-09	2.5126e-08	8.6747e-08	7.8799e-08	-1.2236e-07	-1.4178e-07	-2.9527e-07	-1.1155e-08
1.9616e-07	-6.7731e-09	1.7826e-07	1.0434e-07	1.7525e-07	5.8446e-08	1.3187e-07	-8.0618e-09	3.4039e-08	-7.0542e-08	9.4002e-09	6.968e-08	-1.1655e-07	7.8518e-08	-2.7094e-08	6.229e-08	-2.9863e-08	8.5353e-08	3.2418e-09	-1.7281e-08	-6.9024e-08	-6.217e-10	2.7705e-08	5.5791e-08	-1.2044e-07	-2.3302e-09	-7.4366e-08	7.2866e-09	-9.5893e-08	2.8499e-08	4.8553e-08	-5.8167e-09	-7.3272e-08	-6.9361e-08	-6.1179e-10	2.3923e-08	8.4164e-08	8.1228e-08	-1.1974e-07	-1.4055e-07	-2.9037e-07	-1.1863e-08
1.9472e-07	-6.8977e-09	1.7825e-07	1.0419e-07	1.7476e-07	5.8435e-08	1.3157e-07	-7.0112e-09	3.4702e-08	-7.1456e-08	1.0092e-08	6.7522e-08	-1.139e-07	7.8395e-08	-2.6531e-08	6.2733e-08	-3.0384e-08	8.6063e-08	2.3567e-09	-1.6265e-08	-6.5995e-08	6.2785e-10	2.6858e-08	5.3169e-08	-1.1709e-07	-1.9616e-09	-7.2381e-08	7.8802e-09	-9.6093e-08	2.9349e-08	4.53e-08	-5.7291e-09	-7.1868e-08	-6.7882e-08	1.3723e-09	2.2703e-08	8.1558e-08	8.3694e-08	-1.1712e-07	-1.393e-07	-2.8541e-07	-1.2561e-08
1.9325e-07	-6.9875e-09	1.7823e-07	1.0404e-07	1.7424e-07	5.8434e-08	1.3123e-07	-6.0081e-09	3.5311e-08	-7.234e-08	1.0793e-08	6.5386e-08	-1.1122e-07	7.8278e-08	-2.5946e-08	6.3153e-08	-3.0883e-08	8.6794e-08	1.3898e-09	-1.529e-08	-6.2968e-08	1.9156e-09	2.5993e-08	5.0533e-08	-1.1375e-07	-1.5911e-09	-7.0395e-08	8.4846e-09	-9.6244e-08	3.0151e-08	4.1963e-08	-5.6947e-09	-7.0438e-08	-6.6429e-08	3.3874e-09	2.1468e-08	7.8929e-08	8.6194e-08	-1.1449e-07	-1.3803e-07	-2.804e-07	-1.3245e-08
1.9178e-07	-7.0432e-09	1.7821e-07	1.0388e-07	1.7371e-07	5.8442e-08	1.3086e-07	-5.0526e-09	3.5867e-08	-7.3186e-08	1.1505e-08	6.3274e-08	-1.0852e-07	7.8167e-08	-2.5349e-08	6.3547e-08	-3.1361e-08	8.7543e-08	3.4152e-10	-1.4359e-08	-5.9942e-08	3.2404e-09	2.5109e-08	4.789e-08	-1.1043e-07	-1.2154e-09	-6.8407e-08	9.0971e-09	-9.6347e-08	3.0904e-08	3.8545e-08	-5.7116e-09	-6.8981e-08	-6.5001e-08	5.4324e-09	2.0218e-08	7.6281e-08	8.8722e-08	-1.1185e-07	-1.3675e-07	-2.7535e-07	-1.3913e-08
1.9029e-07	-7.0656e-09	1.7816e-07	1.0372e-07	1.7315e-07	5.846e-08	1.3045e-07	-4.1446e-09	3.6369e-08	-7.3987e-08	1.2228e-08	6.1188e-08	-1.0579e-07	7.8059e-08	-2.4747e-08	6.3911e-08	-3.1817e-08	8.8309e-08	-7.8736e-10	-1.3472e-08	-5.6918e-08	4.6005e-09	2.4208e-08	4.5248e-08	-1.0713e-07	-8.3118e-10	-6.6419e-08	9.7151e-09	-9.6405e-08	3.1604e-08	3.5054e-08	-5.7776e-09	-6.7496e-08	-6.3596e-08	7.5061e-09	1.8954e-08	7.3615e-08	9.1273e-08	-1.092e-07	-1.3543e-07	-2.7025e-07	-1.4561e-08
1.888e-07	-7.0558e-09	1.7809e-07	1.0355e-07	1.7258e-07	5.8486e-08	1.3001e-07	-3.2838e-09	3.682e-08	-7.4737e-08	1.2963e-08	5.9127e-08	-1.0305e-07	7.7952e-08	-2.4148e-08	6.4242e-08	-3.2252e-08	8.9088e-08	-1.9959e-09	-1.2631e-08	-5.3892e-08	5.9942e-09	2.3291e-08	4.2615e-08	-1.0384e-07	-4.3526e-10	-6.4432e-08	1.0336e-08	-9.642e-08	3.225e-08	3.1495e-08	-5.8902e-09	-6.598e-08	-6.2212e-08	9.6073e-09	1.7676e-08	7.0935e-08	9.3839e-08	-1.0654e-07	-1.3409e-07	-2.6509e-07	-1.5187e-08
1.8729e-07	-7.0148e-09	1.78e-07	1.0338e-07	1.7199e-07	5.8521e-08	1.2952e-07	-2.4694e-09	3.7218e-08	-7.5428e-08	1.371e-08	5.7094e-08	-1.0028e-07	7.7845e-08	-2.3562e-08	6.4536e-08	-3.2668e-08	8.988e-08	-3.2827e-09	-1.1837e-08	-5.0866e-08	7.4194e-09	2.2358e-08	3.9998e-08	-1.0057e-07	-2.4311e-11	-6.2446e-08	1.0956e-08	-9.6396e-08	3.2841e-08	2.7875e-08	-6.0469e-09	-6.4432e-08	-6.0849e-08	1.1734e-08	1.6387e-08	6.8243e-08	9.6416e-08	-1.0386e-07	-1.3272e-07	-2.599e-07	-1.5788e-08
1.8577e-07	-6.9436e-09	1.7787e-07	1.032e-07	1.7138e-07	5.8564e-08	1.29e-07	-1.7007e-09	3.7564e-08	-7.6055e-08	1.447e-08	5.5088e-08	-9.7489e-08	7.7736e-08	-2.2995e-08	6.4789e-08	-3.3064e-08	9.0681e-08	-4.6461e-09	-1.1091e-08	-4.7837e-08	8.8739e-09	2.1413e-08	3.7404e-08	-9.7309e-08	4.0495e-10	-6.0463e-08	1.1573e-08	-9.6335e-08	3.3374e-08	2.4198e-08	-6.2447e-09	-6.2851e-08	-5.9504e-08	1.3886e-08	1.5089e-08	6.5543e-08	9.8996e-08	-1.0117e-07	-1.3131e-07	-2.5465e-07	-1.6361e-08
1.8424e-07	-6.8434e-09	1.7772e-07	1.0301e-07	1.7076e-07	5.8615e-08	1.2845e-07	-9.7665e-10	3.786e-08	-7.661e-08	1.5243e-08	5.311e-08	-9.4684e-08	7.7622e-08	-2.2457e-08	6.4998e-08	-3.3443e-08	9.1488e-08	-6.0843e-09	-1.0394e-08	-4.4805e-08	1.0355e-08	2.0454e-08	3.4841e-08	-9.4066e-08	8.5575e-10	-5.8484e-08	1.2185e-08	-9.624e-08	3.3849e-08	2.0473e-08	-6.4805e-09	-6.1235e-08	-5.8175e-08	1.606e-08	1.3784e-08	6.2837e-08	1.0157e-07	-9.8468e-08	-1.2986e-07	-2.4936e-07	-1.6904e-08
1.827e-07	-6.7154e-09	1.7752e-07	1.0281e-07	1.7013e-07	5.8673e-08	1.2785e-07	-2.959e-10	3.8107e-08	-7.7087e-08	1.6031e-08	5.1161e-08	-9.1862e-08	7.75e-08	-2.1955e-08	6.5158e-08	-3.3804e-08	9.2299e-08	-7.5951e-09	-9.7445e-09	-4.1771e-08	1.1861e-08	1.9485e-08	3.2316e-08	-9.0838e-08	1.3313e-09	-5.6509e-08	1.2787e-08	-9.6114e-08	3.4263e-08	1.6706e-08	-6.7511e-09	-5.9583e-08	-5.686e-08	1.8254e-08	1.2474e-08	6.013e-08	1.0414e-07	-9.5746e-08	-1.2836e-07	-2.4402e-07	-1.7413e-08
1.8115e-07	-6.5607e-09	1.7728e-07	1.0259e-07	1.6948e-07	5.8738e-08	1.2723e-07	3.43e-10	3.8304e-08	-7.7482e-08	1.6832e-08	4.9239e-08	-8.9026e-08	7.737e-08	-2.1497e-08	6.5266e-08	-3.4149e-08	9.3112e-08	-9.1758e-09	-9.1439e-09	-3.8732e-08	1.3388e-08	1.8506e-08	2.9837e-08	-8.7623e-08	1.8347e-09	-5.4539e-08	1.3378e-08	-9.5959e-08	3.4615e-08	1.2902e-08	-7.0531e-09	-5.7895e-08	-5.5558e-08	2.0467e-08	1.1162e-08	5.7425e-08	1.0669e-07	-9.3005e-08	-1.2682e-07	-2.3864e-07	-1.7886e-08
1.7959e-07	-6.3808e-09	1.7699e-07	1.0237e-07	1.6882e-07	5.8809e-08	1.2656e-07	9.4168e-10	3.8454e-08	-7.7787e-08	1.7649e-08	4.7346e-08	-8.6177e-08	7.7228e-08	-2.109e-08	6.5319e-08	-3.4479e-08	9.3923e-08	-1.0824e-08	-8.5913e-09	-3.5689e-08	1.4935e-08	1.7519e-08	2.7411e-08	-8.4422e-08	2.369e-09	-5.2576e-08	1.3954e-08	-9.578e-08	3.4905e-08	9.0702e-09	-7.3828e-09	-5.6169e-08	-5.4266e-08	2.2697e-08	9.8508e-09	5.4725e-08	1.0922e-07	-9.0244e-08	-1.2523e-07	-2.3322e-07	-1.832e-08
1.7802e-07	-6.1768e-09	1.7665e-07	1.0213e-07	1.6815e-07	5.8884e-08	1.2587e-07	1.5019e-09	3.8556e-08	-7.7999e-08	1.848e-08	4.548e-08	-8.3318e-08	7.7073e-08	-2.0743e-08	6.5312e-08	-3.4795e-08	9.473e-08	-1.2536e-08	-8.0859e-09	-3.2641e-08	1.6497e-08	1.6526e-08	2.5045e-08	-8.1234e-08	2.9371e-09	-5.0621e-08	1.4513e-08	-9.5579e-08	3.5131e-08	5.2162e-09	-7.7365e-09	-5.4404e-08	-5.2983e-08	2.494e-08	8.5446e-09	5.2035e-08	1.1171e-07	-8.7463e-08	-1.2359e-07	-2.2776e-07	-1.8714e-08
1.7645e-07	-5.9502e-09	1.7626e-07	1.0188e-07	1.6747e-07	5.8964e-08	1.2514e-07	2.0257e-09	3.8614e-08	-7.8112e-08	1.9326e-08	4.3643e-08	-8.0449e-08	7.6901e-08	-2.046e-08	6.5243e-08	-3.5098e-08	9.5529e-08	-1.4309e-08	-7.6268e-09	-2.9589e-08	1.8071e-08	1.5527e-08	2.2747e-08	-7.8058e-08	3.5418e-09	-4.8674e-08	1.5052e-08	-9.5359e-08	3.5292e-08	1.3473e-09	-8.1103e-09	-5.2599e-08	-5.1707e-08	2.7196e-08	7.2466e-09	4.9358e-08	1.1417e-07	-8.4661e-08	-1.219e-07	-2.2226e-07	-1.9064e-08
1.7486e-07	-5.7023e-09	1.7581e-07	1.0162e-07	1.6677e-07	5.9047e-08	1.2438e-07	2.5151e-09	3.8626e-08	-7.8121e-08	2.0188e-08	4.1832e-08	-7.7572e-08	7.671e-08	-2.0251e-08	6.5108e-08	-3.539e-08	9.6317e-08	-1.6139e-08	-7.2124e-09	-2.6531e-08	1.9656e-08	1.4524e-08	2.0523e-08	-7.4894e-08	4.1858e-09	-4.6736e-08	1.5568e-08	-9.5125e-08	3.5388e-08	-2.5292e-09	-8.5003e-09	-5.0755e-08	-5.0435e-08	2.9461e-08	5.9605e-09	4.6699e-08	1.1658e-07	-8.1836e-08	-1.2014e-07	-2.1673e-07	-1.9369e-08
1.7327e-07	-5.4344e-09	1.7529e-07	1.0134e-07	1.6607e-07	5.9133e-08	1.2359e-07	2.9721e-09	3.8596e-08	-7.8024e-08	2.1064e-08	4.0048e-08	-7.469e-08	7.6498e-08	-2.012e-08	6.4905e-08	-3.5671e-08	9.7092e-08	-1.8023e-08	-6.8412e-09	-2.3469e-08	2.1248e-08	1.3519e-08	1.8379e-08	-7.174e-08	4.8714e-09	-4.4808e-08	1.6059e-08	-9.4879e-08	3.5418e-08	-6.4062e-09	-8.9024e-09	-4.8871e-08	-4.9166e-08	3.1734e-08	4.6902e-09	4.4062e-08	1.1893e-07	-7.8988e-08	-1.1832e-07	-2.1115e-07	-1.9626e-08
1.7166e-07	-5.1481e-09	1.7472e-07	1.0105e-07	1.6537e-07	5.922e-08	1.2277e-07	3.3992e-09	3.8524e-08	-7.7817e-08	2.1955e-08	3.8291e-08	-7.1805e-08	7.6262e-08	-2.0073e-08	6.4629e-08	-3.5944e-08	9.785e-08	-1.9956e-08	-6.5112e-09	-2.0402e-08	2.2843e-08	1.2514e-08	1.6323e-08	-6.8595e-08	5.6012e-09	-4.2892e-08	1.6522e-08	-9.4624e-08	3.5382e-08	-1.0276e-08	-9.3125e-09	-4.6947e-08	-4.7898e-08	3.4011e-08	3.4398e-09	4.1451e-08	1.2123e-07	-7.6116e-08	-1.1644e-07	-2.0555e-07	-1.9835e-08
1.7006e-07	-4.8446e-09	1.7408e-07	1.0074e-07	1.6465e-07	5.9307e-08	1.2192e-07	3.7985e-09	3.8411e-08	-7.7497e-08	2.2862e-08	3.6559e-08	-6.8917e-08	7.6001e-08	-2.0117e-08	6.4279e-08	-3.6209e-08	9.8588e-08	-2.1934e-08	-6.2199e-09	-1.733e-08	2.444e-08	1.151e-08	1.4359e-08	-6.546e-08	6.3771e-09	-4.0988e-08	1.6954e-08	-9.4364e-08	3.528e-08	-1.4132e-08	-9.7263e-09	-4.4982e-08	-4.6629e-08	3.6291e-08	2.2136e-09	3.8869e-08	1.2345e-07	-7.3221e-08	-1.1449e-07	-1.9992e-07	-1.9992e-08
1.6844e-07	-4.5254e-09	1.7337e-07	1.0042e-07	1.6392e-07	5.9393e-08	1.2104e-07	4.1724e-09	3.826e-08	-7.7061e-08	2.3782e-08	3.4852e-08	-6.603e-08	7.5711e-08	-2.0256e-08	6.3852e-08	-3.6467e-08	9.9303e-08	-2.3952e-08	-5.9649e-09	-1.4254e-08	2.6035e-08	1.0508e-08	1.2495e-08	-6.2332e-08	7.2011e-09	-3.9096e-08	1.7354e-08	-9.4103e-08	3.5111e-08	-1.7967e-08	-1.014e-08	-4.2977e-08	-4.5358e-08	3.8569e-08	1.0157e-09	3.6322e-08	1.256e-07	-7.0301e-08	-1.1248e-07	-1.9426e-07	-2.0098e-08
1.6682e-07	-4.192e-09	1.7258e-07	1.0008e-07	1.6319e-07	5.9477e-08	1.2013e-07	4.5232e-09	3.8071e-08	-7.6509e-08	2.4717e-08	3.3169e-08	-6.3144e-08	7.539e-08	-2.0495e-08	6.3345e-08	-3.6721e-08	9.9992e-08	-2.6006e-08	-5.7433e-09	-1.1174e-08	2.7626e-08	9.5107e-09	1.0736e-08	-5.9211e-08	8.0749e-09	-3.7219e-08	1.772e-08	-9.3844e-08	3.4877e-08	-2.1772e-08	-1.0549e-08	-4.0931e-08	-4.4084e-08	4.0844e-08	-1.4949e-10	3.3813e-08	1.2767e-07	-6.7357e-08	-1.1039e-07	-1.8858e-07	-2.0151e-08
1.6519e-07	-3.8458e-09	1.7173e-07	9.9717e-08	1.6244e-07	5.9558e-08	1.192e-07	4.8532e-09	3.7846e-08	-7.5838e-08	2.5666e-08	3.151e-08	-6.0263e-08	7.5036e-08	-2.0839e-08	6.2757e-08	-3.6971e-08	1.0065e-07	-2.8089e-08	-5.5519e-09	-8.0911e-09	2.921e-08	8.5193e-09	9.0859e-09	-5.6096e-08	8.9999e-09	-3.5356e-08	1.8049e-08	-9.3591e-08	3.4578e-08	-2.5541e-08	-1.0948e-08	-3.8847e-08	-4.2804e-08	4.3113e-08	-1.2777e-09	3.1347e-08	1.2964e-07	-6.4389e-08	-1.0823e-07	-1.8287e-07	-2.0149e-08
1.6356e-07	-3.4881e-09	1.708e-07	9.934e-08	1.6169e-07	5.9635e-08	1.1825e-07	5.1646e-09	3.7586e-08	-7.5049e-08	2.6627e-08	2.9874e-08	-5.7387e-08	7.4648e-08	-2.129e-08	6.2085e-08	-3.7218e-08	1.0128e-07	-3.0198e-08	-5.3875e-09	-5.0051e-09	3.0785e-08	7.5355e-09	7.5505e-09	-5.2986e-08	9.9774e-09	-3.3508e-08	1.8339e-08	-9.3346e-08	3.4214e-08	-2.9267e-08	-1.1335e-08	-3.6723e-08	-4.1518e-08	4.5371e-08	-2.3645e-09	2.8926e-08	1.3152e-07	-6.1397e-08	-1.0601e-07	-1.7715e-07	-2.0092e-08
1.6192e-07	-3.1204e-09	1.6979e-07	9.8945e-08	1.6093e-07	5.9705e-08	1.1727e-07	5.4596e-09	3.7294e-08	-7.4142e-08	2.7601e-08	2.826e-08	-5.4519e-08	7.4221e-08	-2.1852e-08	6.1329e-08	-3.7464e-08	1.0187e-07	-3.2326e-08	-5.2465e-09	-1.917e-09	3.2348e-08	6.5611e-09	6.1338e-09	-4.9879e-08	1.1008e-08	-3.1677e-08	1.8589e-08	-9.3114e-08	3.3787e-08	-3.2941e-08	-1.1705e-08	-3.4561e-08	-4.0225e-08	4.7616e-08	-3.4059e-09	2.6556e-08	1.3329e-07	-5.8381e-08	-1.037e-07	-1.7141e-07	-1.9979e-08
1.6027e-07	-2.7441e-09	1.687e-07	9.8531e-08	1.6016e-07	5.9769e-08	1.1626e-07	5.7403e-09	3.697e-08	-7.3117e-08	2.8587e-08	2.6668e-08	-5.166e-08	7.3756e-08	-2.2528e-08	6.0487e-08	-3.7709e-08	1.0243e-07	-3.4468e-08	-5.1251e-09	1.1722e-09	3.3897e-08	5.5977e-09	4.8398e-09	-4.6776e-08	1.2094e-08	-2.9862e-08	1.8798e-08	-9.2897e-08	3.3296e-08	-3.6558e-08	-1.2053e-08	-3.2361e-08	-3.8923e-08	4.9845e-08	-4.3976e-09	2.4239e-08	1.3495e-07	-5.5343e-08	-1.0133e-07	-1.6566e-07	-1.981e-08
1.5862e-07	-2.3606e-09	1.6753e-07	9.8098e-08	1.5937e-07	5.9825e-08	1.1524e-07	6.0086e-09	3.6616e-08	-7.1976e-08	2.9584e-08	2.5097e-08	-4.8813e-08	7.3249e-08	-2.332e-08	5.9558e-08	-3.7956e-08	1.0294e-07	-3.6617e-08	-5.0195e-09	4.2617e-09	3.5432e-08	4.6469e-09	3.6715e-09	-4.3676e-08	1.3233e-08	-2.8066e-08	1.8963e-08	-9.27e-08	3.2745e-08	-4.0109e-08	-1.2375e-08	-3.0125e-08	-3.7611e-08	5.2053e-08	-5.3357e-09	2.198e-08	1.365e-07	-5.2284e-08	-9.8878e-08	-1.599e-07	-1.9583e-08
1.5697e-07	-1.9711e-09	1.6628e-07	9.7644e-08	1.5858e-07	5.9872e-08	1.1419e-07	6.2663e-09	3.6234e-08	-7.0721e-08	3.059e-08	2.3547e-08	-4.5978e-08	7.27e-08	-2.423e-08	5.8541e-08	-3.8205e-08	1.0341e-07	-3.8769e-08	-4.9257e-09	7.3503e-09	3.6949e-08	3.7107e-09	2.632e-09	-4.0577e-08	1.4428e-08	-2.6288e-08	1.9085e-08	-9.2525e-08	3.2133e-08	-4.3588e-08	-1.2669e-08	-2.7853e-08	-3.6289e-08	5.4238e-08	-6.2164e-09	1.9781e-08	1.3792e-07	-4.9203e-08	-9.6355e-08	-1.5413e-07	-1.9299e-08
1.5531e-07	-1.5771e-09	1.6495e-07	9.7171e-08	1.5777e-07	5.9907e-08	1.1313e-07	6.515e-09	3.5826e-08	-6.9355e-08	3.1606e-08	2.2017e-08	-4.3159e-08	7.2106e-08	-2.5259e-08	5.7436e-08	-3.8456e-08	1.0383e-07	-4.0915e-08	-4.8395e-09	1.0437e-08	3.8449e-08	2.7906e-09	1.7233e-09	-3.7478e-08	1.5677e-08	-2.4528e-08	1.9162e-08	-9.2375e-08	3.1463e-08	-4.6988e-08	-1.2929e-08	-2.5548e-08	-3.4957e-08	5.6395e-08	-7.0359e-09	1.7646e-08	1.3922e-07	-4.6103e-08	-9.376e-08	-1.4836e-07	-1.8957e-08
1.5365e-07	-1.1798e-09	1.6353e-07	9.6676e-08	1.5695e-07	5.9931e-08	1.1205e-07	6.7562e-09	3.5392e-08	-6.7881e-08	3.2629e-08	2.0506e-08	-4.0356e-08	7.1466e-08	-2.6408e-08	5.6243e-08	-3.8712e-08	1.0421e-07	-4.3051e-08	-4.7569e-09	1.352e-08	3.9928e-08	1.8883e-09	9.4713e-10	-3.438e-08	1.698e-08	-2.2789e-08	1.9193e-08	-9.2254e-08	3.0736e-08	-5.0303e-08	-1.3153e-08	-2.321e-08	-3.3612e-08	5.852e-08	-7.7909e-09	1.5578e-08	1.4038e-07	-4.2985e-08	-9.1092e-08	-1.426e-07	-1.8558e-08
1.5199e-07	-7.8043e-10	1.6203e-07	9.6161e-08	1.5612e-07	5.9942e-08	1.1095e-07	6.9913e-09	3.4936e-08	-6.6302e-08	3.3658e-08	1.9015e-08	-3.7571e-08	7.0779e-08	-2.7676e-08	5.4963e-08	-3.8972e-08	1.0454e-07	-4.517e-08	-4.6736e-09	1.6598e-08	4.1388e-08	1.0055e-09	3.0452e-10	-3.128e-08	1.8337e-08	-2.1069e-08	1.9178e-08	-9.2163e-08	2.9955e-08	-5.3526e-08	-1.3336e-08	-2.0842e-08	-3.2257e-08	6.0611e-08	-8.4783e-09	1.358e-08	1.4141e-07	-3.985e-08	-8.8355e-08	-1.3683e-07	-1.8103e-08
1.5032e-07	-3.8024e-10	1.6045e-07	9.5623e-08	1.5527e-07	5.9939e-08	1.0983e-07	7.2213e-09	3.4458e-08	-6.4624e-08	3.4693e-08	1.7542e-08	-3.4806e-08	7.0044e-08	-2.9063e-08	5.3596e-08	-3.9237e-08	1.0481e-07	-4.7264e-08	-4.5857e-09	1.967e-08	4.2827e-08	1.4386e-10	-2.0407e-10	-2.818e-08	1.9747e-08	-1.9371e-08	1.9117e-08	-9.2107e-08	2.9121e-08	-5.6651e-08	-1.3476e-08	-1.8445e-08	-3.0889e-08	6.2663e-08	-9.095e-09	1.1654e-08	1.423e-07	-3.67e-08	-8.5548e-08	-1.3108e-07	-1.7592e-08
1.4864e-07	1.964e-11	1.5878e-07	9.5064e-08	1.5441e-07	5.992e-08	1.087e-07	7.4471e-09	3.3959e-08	-6.2851e-08	3.5731e-08	1.6088e-08	-3.2062e-08	6.9261e-08	-3.0569e-08	5.2143e-08	-3.9508e-08	1.0504e-07	-4.9329e-08	-4.489e-09	2.2734e-08	4.4244e-08	-6.9502e-10	-5.7877e-10	-2.5078e-08	2.1209e-08	-1.7693e-08	1.9009e-08	-9.2087e-08	2.8237e-08	-5.9672e-08	-1.3569e-08	-1.6021e-08	-2.9509e-08	6.4672e-08	-9.6386e-09	9.8028e-09	1.4305e-07	-3.3537e-08	-8.2675e-08	-1.2534e-07	-1.7026e-08
1.4697e-07	4.1809e-10	1.5703e-07	9.4482e-08	1.5353e-07	5.9884e-08	1.0756e-07	7.6695e-09	3.3443e-08	-6.0988e-08	3.6772e-08	1.4652e-08	-2.9341e-08	6.8428e-08	-3.2192e-08	5.0605e-08	-3.9786e-08	1.0521e-07	-5.1357e-08	-4.3796e-09	2.5788e-08	4.5641e-08	-1.5096e-09	-8.2036e-10	-2.1974e-08	2.272e-08	-1.6036e-08	1.8855e-08	-9.2105e-08	2.7305e-08	-6.2584e-08	-1.3612e-08	-1.3572e-08	-2.8118e-08	6.6634e-08	-1.0107e-08	8.0287e-09	1.4365e-07	-3.0363e-08	-7.9738e-08	-1.1961e-07	-1.6406e-08
1.4529e-07	8.1408e-10	1.5519e-07	9.3876e-08	1.5263e-07	5.983e-08	1.064e-07	7.8888e-09	3.2909e-08	-5.9043e-08	3.7814e-08	1.3233e-08	-2.6644e-08	6.7545e-08	-3.3929e-08	4.8986e-08	-4.007e-08	1.0533e-07	-5.3341e-08	-4.2539e-09	2.8831e-08	4.7015e-08	-2.2984e-09	-9.3021e-10	-1.8868e-08	2.4281e-08	-1.4402e-08	1.8654e-08	-9.2164e-08	2.6328e-08	-6.5381e-08	-1.3603e-08	-1.1102e-08	-2.6714e-08	6.8547e-08	-1.0498e-08	6.3336e-09	1.4409e-07	-2.718e-08	-7.6739e-08	-1.139e-07	-1.5734e-08
1.436e-07	1.2066e-09	1.5327e-07	9.3247e-08	1.5171e-07	5.9758e-08	1.0523e-07	8.1053e-09	3.236e-08	-5.702e-08	3.8855e-08	1.1833e-08	-2.3973e-08	6.6613e-08	-3.5778e-08	4.7285e-08	-4.036e-08	1.054e-07	-5.5275e-08	-4.1082e-09	3.1859e-08	4.8369e-08	-3.0599e-09	-9.1028e-10	-1.5759e-08	2.5888e-08	-1.2789e-08	1.8409e-08	-9.2266e-08	2.5309e-08	-6.8059e-08	-1.3539e-08	-8.6122e-09	-2.53e-08	7.0407e-08	-1.081e-08	4.719e-09	1.4439e-07	-2.399e-08	-7.3682e-08	-1.0822e-07	-1.5011e-08
1.4191e-07	1.5947e-09	1.5127e-07	9.2595e-08	1.5078e-07	5.9666e-08	1.0405e-07	8.3191e-09	3.1797e-08	-5.4926e-08	3.9894e-08	1.045e-08	-2.1327e-08	6.5631e-08	-3.7737e-08	4.5507e-08	-4.0657e-08	1.0541e-07	-5.7154e-08	-3.9391e-09	3.4872e-08	4.9703e-08	-3.7928e-09	-7.6316e-10	-1.2647e-08	2.754e-08	-1.1198e-08	1.8119e-08	-9.2411e-08	2.425e-08	-7.0614e-08	-1.3418e-08	-6.1057e-09	-2.3875e-08	7.221e-08	-1.1041e-08	3.1864e-09	1.4454e-07	-2.0796e-08	-7.0569e-08	-1.0256e-07	-1.4241e-08
1.4022e-07	1.9776e-09	1.4919e-07	9.1917e-08	1.4982e-07	5.9554e-08	1.0286e-07	8.53e-09	3.1222e-08	-5.277e-08	4.0929e-08	9.0849e-09	-1.871e-08	6.4599e-08	-3.9801e-08	4.3653e-08	-4.096e-08	1.0538e-07	-5.8969e-08	-3.7434e-09	3.7867e-08	5.1016e-08	-4.496e-09	-4.9201e-10	-9.5327e-09	2.9234e-08	-9.6299e-09	1.7785e-08	-9.26e-08	2.3155e-08	-7.3041e-08	-1.3237e-08	-3.5852e-09	-2.244e-08	7.3953e-08	-1.1192e-08	1.7371e-09	1.4454e-07	-1.76e-08	-6.7405e-08	-9.6925e-08	-1.3423e-08
1.3853e-07	2.3545e-09	1.4703e-07	9.1215e-08	1.4884e-07	5.9419e-08	1.0166e-07	8.7375e-09	3.0635e-08	-5.0559e-08	4.1958e-08	7.7374e-09	-1.612e-08	6.3518e-08	-4.1967e-08	4.1727e-08	-4.1269e-08	1.0529e-07	-6.0716e-08	-3.5183e-09	4.0842e-08	5.2311e-08	-5.1684e-09	-1.0055e-10	-6.4158e-09	3.0969e-08	-8.0839e-09	1.7409e-08	-9.2836e-08	2.2026e-08	-7.5337e-08	-1.2995e-08	-1.0537e-09	-2.0995e-08	7.5633e-08	-1.1262e-08	3.7165e-10	1.4438e-07	-1.4405e-08	-6.4193e-08	-9.1326e-08	-1.2562e-08
1.3683e-07	2.7246e-09	1.4479e-07	9.0488e-08	1.4785e-07	5.9262e-08	1.0045e-07	8.9413e-09	3.0038e-08	-4.8299e-08	4.2979e-08	6.4075e-09	-1.356e-08	6.2389e-08	-4.423e-08	3.9732e-08	-4.1583e-08	1.0516e-07	-6.2388e-08	-3.261e-09	4.3794e-08	5.3589e-08	-5.8089e-09	4.0697e-10	-3.2965e-09	3.2742e-08	-6.5601e-09	1.6992e-08	-9.3117e-08	2.0867e-08	-7.75e-08	-1.2691e-08	1.4856e-09	-1.9543e-08	7.7249e-08	-1.125e-08	-9.0921e-10	1.4407e-07	-1.1213e-08	-6.0938e-08	-8.5763e-08	-1.166e-08
1.3512e-07	3.0873e-09	1.4247e-07	8.9735e-08	1.4683e-07	5.9082e-08	9.9225e-08	9.1404e-09	2.9432e-08	-4.6e-08	4.3991e-08	5.0955e-09	-1.103e-08	6.1213e-08	-4.6585e-08	3.7672e-08	-4.1902e-08	1.0499e-07	-6.398e-08	-2.969e-09	4.6722e-08	5.4849e-08	-6.4169e-09	1.0258e-09	-1.7512e-10	3.4549e-08	-5.0586e-09	1.6535e-08	-9.3444e-08	1.9681e-08	-7.9527e-08	-1.2323e-08	4.0295e-09	-1.8083e-08	7.8796e-08	-1.1157e-08	-2.1053e-09	1.4361e-07	-8.0271e-09	-5.7643e-08	-8.0239e-08	-1.072e-08
1.3341e-07	3.442e-09	1.4007e-07	8.8956e-08	1.4578e-07	5.8878e-08	9.7994e-08	9.3341e-09	2.8818e-08	-4.367e-08	4.4992e-08	3.8014e-09	-8.5297e-09	5.999e-08	-4.9028e-08	3.5552e-08	-4.2225e-08	1.0477e-07	-6.5485e-08	-2.6402e-09	4.9622e-08	5.6095e-08	-6.9918e-09	1.7507e-09	2.9479e-09	3.6388e-08	-3.5791e-09	1.6041e-08	-9.3818e-08	1.8472e-08	-8.1415e-08	-1.189e-08	6.5748e-09	-1.6616e-08	8.0274e-08	-1.0984e-08	-3.2167e-09	1.4299e-07	-4.8498e-09	-5.4313e-08	-7.4757e-08	-9.7448e-09
1.317e-07	3.7883e-09	1.376e-07	8.815e-08	1.4472e-07	5.8649e-08	9.6755e-08	9.5213e-09	2.8196e-08	-4.1316e-08	4.5979e-08	2.5254e-09	-6.0606e-09	5.8722e-08	-5.1552e-08	3.3374e-08	-4.2551e-08	1.0451e-07	-6.6899e-08	-2.2727e-09	5.2494e-08	5.7328e-08	-7.5331e-09	2.5759e-09	6.0722e-09	3.8257e-08	-2.1214e-09	1.5512e-08	-9.4236e-08	1.7242e-08	-8.3164e-08	-1.1392e-08	9.1179e-09	-1.5145e-08	8.1681e-08	-1.0731e-08	-4.2439e-09	1.4223e-07	-1.6841e-09	-5.0953e-08	-6.932e-08	-8.7377e-09
1.2998e-07	4.1256e-09	1.3505e-07	8.7317e-08	1.4362e-07	5.8395e-08	9.5507e-08	9.7009e-09	2.7569e-08	-3.8947e-08	4.6951e-08	1.2679e-09	-3.6226e-09	5.7411e-08	-5.4151e-08	3.1144e-08	-4.2879e-08	1.0421e-07	-6.8217e-08	-1.865e-09	5.5333e-08	5.8548e-08	-8.0408e-09	3.4954e-09	9.197e-09	4.0151e-08	-6.8536e-10	1.4949e-08	-9.4699e-08	1.5996e-08	-8.4773e-08	-1.0828e-08	1.1655e-08	-1.3671e-08	8.3014e-08	-1.04e-08	-5.1875e-09	1.4133e-07	1.4674e-09	-4.7567e-08	-6.3931e-08	-7.7023e-09
1.2825e-07	4.4537e-09	1.3243e-07	8.6456e-08	1.425e-07	5.8115e-08	9.4251e-08	9.8715e-09	2.6935e-08	-3.6571e-08	4.7906e-08	2.9048e-11	-1.216e-09	5.6058e-08	-5.682e-08	2.8867e-08	-4.3207e-08	1.0387e-07	-6.9433e-08	-1.4159e-09	5.8139e-08	5.9758e-08	-8.5147e-09	4.5026e-09	1.2322e-08	4.2068e-08	7.2951e-10	1.4354e-08	-9.5205e-08	1.4736e-08	-8.6241e-08	-1.0198e-08	1.4184e-08	-1.2195e-08	8.4274e-08	-9.9931e-09	-6.0487e-09	1.4028e-07	4.6018e-09	-4.416e-08	-5.8593e-08	-6.6422e-09
1.2651e-07	4.7723e-09	1.2974e-07	8.5567e-08	1.4136e-07	5.7809e-08	9.2986e-08	1.0032e-08	2.6296e-08	-3.4198e-08	4.8843e-08	-1.1907e-09	1.1593e-09	5.4664e-08	-5.9551e-08	2.6547e-08	-4.3535e-08	1.0351e-07	-7.0544e-08	-9.243e-10	6.0908e-08	6.0959e-08	-8.9552e-09	5.5908e-09	1.5446e-08	4.4005e-08	2.1236e-09	1.3732e-08	-9.5751e-08	1.3467e-08	-8.7569e-08	-9.5028e-09	1.6699e-08	-1.0718e-08	8.546e-08	-9.5113e-09	-6.8287e-09	1.3909e-07	7.7164e-09	-4.0736e-08	-5.3309e-08	-5.561e-09
1.2477e-07	5.0812e-09	1.2698e-07	8.4649e-08	1.4018e-07	5.7476e-08	9.1713e-08	1.0181e-08	2.5652e-08	-3.1834e-08	4.9758e-08	-2.3911e-09	3.5034e-09	5.3233e-08	-6.2339e-08	2.4189e-08	-4.3861e-08	1.0311e-07	-7.1546e-08	-3.8975e-10	6.3639e-08	6.2153e-08	-9.3628e-09	6.7526e-09	1.8568e-08	4.5958e-08	3.4973e-09	1.3083e-08	-9.6337e-08	1.2192e-08	-8.8757e-08	-8.7421e-09	1.9197e-08	-9.2421e-09	8.657e-08	-8.9573e-09	-7.5292e-09	1.3776e-07	1.0808e-08	-3.7302e-08	-4.808e-08	-4.4626e-09
1.2302e-07	5.3802e-09	1.2414e-07	8.3702e-08	1.3898e-07	5.7116e-08	9.0431e-08	1.0316e-08	2.5003e-08	-2.9488e-08	5.065e-08	-3.5718e-09	5.8164e-09	5.1765e-08	-6.5175e-08	2.18e-08	-4.4183e-08	1.0268e-07	-7.2434e-08	1.8809e-10	6.633e-08	6.3342e-08	-9.7382e-09	7.9806e-09	2.1687e-08	4.7924e-08	4.8513e-09	1.2411e-08	-9.6959e-08	1.0915e-08	-8.9807e-08	-7.9167e-09	2.1675e-08	-7.7693e-09	8.7606e-08	-8.3336e-09	-8.1522e-09	1.363e-07	1.3875e-08	-3.386e-08	-4.2911e-08	-3.3509e-09
1.2126e-07	5.6692e-09	1.2124e-07	8.2725e-08	1.3774e-07	5.6729e-08	8.9139e-08	1.0437e-08	2.4349e-08	-2.7168e-08	5.1517e-08	-4.7322e-09	8.0987e-09	5.0264e-08	-6.8052e-08	1.9384e-08	-4.45e-08	1.0223e-07	-7.3207e-08	8.0917e-10	6.8978e-08	6.4528e-08	-1.0083e-08	9.2672e-09	2.4804e-08	4.9899e-08	6.186e-09	1.1718e-08	-9.7615e-08	9.6391e-09	-9.072e-08	-7.0277e-09	2.4129e-08	-6.3012e-09	8.8567e-08	-7.643e-09	-8.6998e-09	1.3471e-07	1.6914e-08	-3.0417e-08	-3.7803e-08	-2.2299e-09
1.1948e-07	5.9484e-09	1.1827e-07	8.1718e-08	1.3648e-07	5.6315e-08	8.7838e-08	1.0542e-08	2.3691e-08	-2.488e-08	5.2357e-08	-5.8722e-09	1.0351e-08	4.8731e-08	-7.0964e-08	1.6947e-08	-4.4811e-08	1.0176e-07	-7.386e-08	1.4732e-09	7.1582e-08	6.5711e-08	-1.0397e-08	1.0604e-08	2.7915e-08	5.1881e-08	7.5022e-09	1.1008e-08	-9.8301e-08	8.3682e-09	-9.1498e-08	-6.0763e-09	2.6553e-08	-4.8395e-09	8.9454e-08	-6.8884e-09	-9.1746e-09	1.3299e-07	1.9922e-08	-2.6976e-08	-3.2759e-08	-1.1035e-09
1.177e-07	6.2176e-09	1.1524e-07	8.0679e-08	1.3517e-07	5.5873e-08	8.6527e-08	1.063e-08	2.3027e-08	-2.2634e-08	5.3168e-08	-6.9911e-09	1.2573e-08	4.7169e-08	-7.3902e-08	1.4495e-08	-4.5113e-08	1.0126e-07	-7.4393e-08	2.1794e-09	7.414e-08	6.6895e-08	-1.0683e-08	1.1984e-08	3.1021e-08	5.3865e-08	8.8004e-09	1.0283e-08	-9.9013e-08	7.1058e-09	-9.2144e-08	-5.0639e-09	2.8945e-08	-3.386e-09	9.0269e-08	-6.0728e-09	-9.5793e-09	1.3116e-07	2.2897e-08	-2.3543e-08	-2.778e-08	2.3957e-11
1.159e-07	6.4772e-09	1.1215e-07	7.9609e-08	1.3383e-07	5.5404e-08	8.5205e-08	1.07e-08	2.2359e-08	-2.0434e-08	5.3949e-08	-8.0887e-09	1.4766e-08	4.5581e-08	-7.6858e-08	1.2033e-08	-4.5404e-08	1.0074e-07	-7.4802e-08	2.9268e-09	7.6651e-08	6.8079e-08	-1.0943e-08	1.3398e-08	3.412e-08	5.585e-08	1.0081e-08	9.5468e-09	-9.9749e-08	5.8554e-09	-9.2662e-08	-3.9921e-09	3.1301e-08	-1.9427e-09	9.1012e-08	-5.1997e-09	-9.917e-09	1.2921e-07	2.5836e-08	-2.0121e-08	-2.2869e-08	1.1485e-09
1.1409e-07	6.7272e-09	1.0899e-07	7.8506e-08	1.3246e-07	5.4908e-08	8.3872e-08	1.075e-08	2.1684e-08	-1.8287e-08	5.4697e-08	-9.1645e-09	1.6931e-08	4.3969e-08	-7.9826e-08	9.5662e-09	-4.5684e-08	1.0021e-07	-7.5088e-08	3.7143e-09	7.9112e-08	6.9266e-08	-1.1178e-08	1.4839e-08	3.7212e-08	5.7831e-08	1.1346e-08	8.8023e-09	-1.005e-07	4.6206e-09	-9.3054e-08	-2.8629e-09	3.3616e-08	-5.112e-10	9.1684e-08	-4.2724e-09	-1.0191e-08	1.2716e-07	2.8738e-08	-1.6715e-08	-1.8028e-08	2.2658e-09
1.1226e-07	6.9679e-09	1.0576e-07	7.7371e-08	1.3104e-07	5.4385e-08	8.2527e-08	1.0779e-08	2.1004e-08	-1.62e-08	5.541e-08	-1.0218e-08	1.9069e-08	4.2335e-08	-8.2796e-08	7.1015e-09	-4.5951e-08	9.966e-08	-7.5247e-08	4.5403e-09	8.1522e-08	7.0457e-08	-1.1391e-08	1.6297e-08	4.0294e-08	5.9806e-08	1.2595e-08	8.0528e-09	-1.0127e-07	3.4047e-09	-9.3325e-08	-1.6783e-09	3.5887e-08	9.0655e-10	9.2289e-08	-3.2944e-09	-1.0404e-08	1.25e-07	3.1599e-08	-1.333e-08	-1.3258e-08	3.3718e-09
1.1042e-07	7.1996e-09	1.0248e-07	7.6201e-08	1.2958e-07	5.3835e-08	8.1168e-08	1.0786e-08	2.0316e-08	-1.4177e-08	5.6087e-08	-1.1249e-08	2.118e-08	4.0683e-08	-8.5762e-08	4.6438e-09	-4.6202e-08	9.9094e-08	-7.5282e-08	5.4031e-09	8.388e-08	7.1652e-08	-1.1584e-08	1.7765e-08	4.3366e-08	6.1771e-08	1.3829e-08	7.3014e-09	-1.0205e-07	2.211e-09	-9.3479e-08	-4.4058e-10	3.811e-08	2.3088e-09	9.2826e-08	-2.2694e-09	-1.056e-08	1.2274e-07	3.4418e-08	-9.9681e-09	-8.5614e-09	4.4623e-09
1.0856e-07	7.4226e-09	9.9142e-08	7.4997e-08	1.2808e-07	5.3258e-08	7.9796e-08	1.0771e-08	1.9621e-08	-1.2223e-08	5.6726e-08	-1.2258e-08	2.3265e-08	3.9015e-08	-8.8714e-08	2.1988e-09	-4.6436e-08	9.8514e-08	-7.519e-08	6.3006e-09	8.6185e-08	7.2853e-08	-1.176e-08	1.9234e-08	4.6427e-08	6.3724e-08	1.5049e-08	6.5514e-09	-1.0284e-07	1.0428e-09	-9.352e-08	8.4776e-10	4.0282e-08	3.6937e-09	9.3299e-08	-1.201e-09	-1.0663e-08	1.2039e-07	3.7193e-08	-6.6345e-09	-3.9391e-09	5.5333e-09
1.0667e-07	7.6374e-09	9.5744e-08	7.3758e-08	1.2654e-07	5.2655e-08	7.8409e-08	1.0733e-08	1.8917e-08	-1.0343e-08	5.7325e-08	-1.3242e-08	2.5326e-08	3.7335e-08	-9.1646e-08	-2.2813e-10	-4.6651e-08	9.7919e-08	-7.4974e-08	7.2306e-09	8.8436e-08	7.406e-08	-1.1923e-08	2.0697e-08	4.9475e-08	6.5662e-08	1.6256e-08	5.8062e-09	-1.0362e-07	-9.6929e-11	-9.3454e-08	2.1841e-09	4.2399e-08	5.0597e-09	9.371e-08	-9.3098e-11	-1.0717e-08	1.1796e-07	3.9922e-08	-3.3325e-09	6.0738e-10	6.5808e-09
1.0477e-07	7.8444e-09	9.2288e-08	7.2483e-08	1.2494e-07	5.2026e-08	7.7006e-08	1.0672e-08	1.8204e-08	-8.5395e-09	5.7882e-08	-1.4204e-08	2.7363e-08	3.5644e-08	-9.4549e-08	-2.6318e-09	-4.6847e-08	9.7309e-08	-7.4633e-08	8.1908e-09	9.0631e-08	7.5274e-08	-1.2074e-08	2.2145e-08	5.2509e-08	6.7582e-08	1.745e-08	5.0689e-09	-1.044e-07	-1.2051e-09	-9.3285e-08	3.5657e-09	4.4458e-08	6.405e-09	9.4061e-08	1.0506e-09	-1.0725e-08	1.1544e-07	4.2603e-08	-6.5592e-11	5.0768e-09	7.6009e-09
1.0285e-07	8.0441e-09	8.8778e-08	7.1171e-08	1.233e-07	5.1372e-08	7.5586e-08	1.0587e-08	1.7481e-08	-6.8163e-09	5.8397e-08	-1.5141e-08	2.9378e-08	3.3945e-08	-9.7416e-08	-5.0069e-09	-4.7021e-08	9.6686e-08	-7.417e-08	9.1786e-09	9.2771e-08	7.6495e-08	-1.2218e-08	2.3571e-08	5.5528e-08	6.9482e-08	1.8633e-08	4.3427e-09	-1.0517e-07	-2.279e-09	-9.3019e-08	4.9895e-09	4.6457e-08	7.728e-09	9.4355e-08	2.2264e-09	-1.0691e-08	1.1286e-07	4.5235e-08	3.163e-09	9.4681e-09	8.5897e-09
1.009e-07	8.237e-09	8.5213e-08	6.9822e-08	1.2161e-07	5.0692e-08	7.4148e-08	1.0479e-08	1.6746e-08	-5.1754e-09	5.8867e-08	-1.6054e-08	3.1371e-08	3.2242e-08	-1.0024e-07	-7.3487e-09	-4.7172e-08	9.6048e-08	-7.3587e-08	1.0191e-08	9.4854e-08	7.7722e-08	-1.2358e-08	2.4967e-08	5.8531e-08	7.1359e-08	1.9806e-08	3.631e-09	-1.0593e-07	-3.3158e-09	-9.2661e-08	6.4526e-09	4.8392e-08	9.0273e-09	9.4594e-08	3.4305e-09	-1.062e-08	1.102e-07	4.7816e-08	6.3501e-09	1.378e-08	9.5438e-09
9.8926e-08	8.4238e-09	8.1595e-08	6.8434e-08	1.1986e-07	4.9988e-08	7.2691e-08	1.0348e-08	1.5999e-08	-3.6188e-09	5.9291e-08	-1.6943e-08	3.3345e-08	3.0536e-08	-1.0301e-07	-9.6523e-09	-4.7299e-08	9.5394e-08	-7.2885e-08	1.1226e-08	9.688e-08	7.8957e-08	-1.2497e-08	2.6325e-08	6.1517e-08	7.3212e-08	2.0968e-08	2.9367e-09	-1.0666e-07	-4.313e-09	-9.2218e-08	7.9517e-09	5.0262e-08	1.0301e-08	9.4781e-08	4.6592e-09	-1.0515e-08	1.0749e-07	5.0344e-08	9.4928e-09	1.8013e-08	1.046e-08
9.6925e-08	8.605e-09	7.7924e-08	6.7008e-08	1.1807e-07	4.9261e-08	7.1214e-08	1.0193e-08	1.5238e-08	-2.1475e-09	5.9669e-08	-1.7806e-08	3.5299e-08	2.8832e-08	-1.0572e-07	-1.1913e-08	-4.7401e-08	9.4725e-08	-7.2069e-08	1.228e-08	9.8848e-08	8.0197e-08	-1.264e-08	2.764e-08	6.4484e-08	7.5038e-08	2.2122e-08	2.2631e-09	-1.0737e-07	-5.2683e-09	-9.1695e-08	9.4837e-09	5.2064e-08	1.1549e-08	9.4917e-08	5.9086e-09	-1.038e-08	1.0472e-07	5.282e-08	1.2588e-08	2.2165e-08	1.1334e-08
9.4895e-08	8.7813e-09	7.4204e-08	6.5542e-08	1.1621e-07	4.851e-08	6.9715e-08	1.0017e-08	1.4463e-08	-7.6228e-10	5.9997e-08	-1.8645e-08	3.7236e-08	2.713e-08	-1.0836e-07	-1.4127e-08	-4.7477e-08	9.4039e-08	-7.1141e-08	1.335e-08	1.0076e-07	8.1443e-08	-1.2791e-08	2.8904e-08	6.7431e-08	7.6836e-08	2.3267e-08	1.6131e-09	-1.0805e-07	-6.1795e-09	-9.1098e-08	1.1045e-08	5.3796e-08	1.2768e-08	9.5007e-08	7.1752e-09	-1.0219e-08	1.0191e-07	5.5241e-08	1.5634e-08	2.6237e-08	1.2163e-08
9.2836e-08	8.9534e-09	7.0433e-08	6.4036e-08	1.143e-07	4.7737e-08	6.8193e-08	9.8198e-09	1.3672e-08	5.3693e-10	6.0276e-08	-1.9458e-08	3.9155e-08	2.5435e-08	-1.1093e-07	-1.629e-08	-4.7527e-08	9.3334e-08	-7.0106e-08	1.4434e-08	1.0261e-07	8.2693e-08	-1.2952e-08	3.0111e-08	7.0358e-08	7.8603e-08	2.4405e-08	9.8967e-10	-1.0869e-07	-7.0445e-09	-9.0433e-08	1.2633e-08	5.5457e-08	1.3959e-08	9.5053e-08	8.4554e-09	-1.0036e-08	9.9048e-08	5.7607e-08	1.8628e-08	3.0228e-08	1.2945e-08
9.0744e-08	9.1221e-09	6.6615e-08	6.2489e-08	1.1233e-07	4.6943e-08	6.6648e-08	9.6024e-09	1.2864e-08	1.7506e-09	6.0505e-08	-2.0245e-08	4.1059e-08	2.3747e-08	-1.1342e-07	-1.8399e-08	-4.7549e-08	9.261e-08	-6.8968e-08	1.5527e-08	1.0441e-07	8.3947e-08	-1.3128e-08	3.1255e-08	7.3263e-08	8.0339e-08	2.5537e-08	3.9559e-10	-1.093e-07	-7.8614e-09	-8.9707e-08	1.4243e-08	5.7045e-08	1.512e-08	9.5056e-08	9.7457e-09	-9.8354e-09	9.6156e-08	5.9918e-08	2.1566e-08	3.4137e-08	1.3676e-08
8.8619e-08	9.288e-09	6.275e-08	6.09e-08	1.1029e-07	4.6127e-08	6.5078e-08	9.3664e-09	1.2038e-08	2.8796e-09	6.0682e-08	-2.1007e-08	4.2948e-08	2.207e-08	-1.1582e-07	-2.0448e-08	-4.7544e-08	9.1865e-08	-6.7732e-08	1.6628e-08	1.0614e-07	8.5202e-08	-1.3324e-08	3.2331e-08	7.6145e-08	8.2041e-08	2.6662e-08	-1.664e-10	-1.0985e-07	-8.6286e-09	-8.8925e-08	1.5873e-08	5.8559e-08	1.6249e-08	9.5019e-08	1.1043e-08	-9.62e-09	9.3235e-08	6.2172e-08	2.4449e-08	3.7965e-08	1.4355e-08
8.646e-08	9.4519e-09	5.8839e-08	5.927e-08	1.082e-07	4.5291e-08	6.3482e-08	9.1133e-09	1.1193e-08	3.9255e-09	6.0806e-08	-2.1743e-08	4.4823e-08	2.0406e-08	-1.1812e-07	-2.2437e-08	-4.7511e-08	9.1097e-08	-6.6403e-08	1.7734e-08	1.0782e-07	8.6458e-08	-1.3541e-08	3.3333e-08	7.9004e-08	8.3709e-08	2.7783e-08	-6.9371e-10	-1.1036e-07	-9.3447e-09	-8.8093e-08	1.7518e-08	5.9998e-08	1.7347e-08	9.4945e-08	1.2343e-08	-9.3939e-09	9.0291e-08	6.4369e-08	2.7272e-08	4.1713e-08	1.4978e-08
8.4264e-08	9.6147e-09	5.4884e-08	5.7597e-08	1.0605e-07	4.4436e-08	6.186e-08	8.8449e-09	1.0328e-08	4.8901e-09	6.0878e-08	-2.2452e-08	4.6686e-08	1.8757e-08	-1.2033e-07	-2.4361e-08	-4.745e-08	9.0305e-08	-6.4986e-08	1.8841e-08	1.0945e-07	8.7712e-08	-1.3786e-08	3.4259e-08	8.1838e-08	8.5341e-08	2.8899e-08	-1.1839e-09	-1.1081e-07	-1.0008e-08	-8.7218e-08	1.9176e-08	6.1363e-08	1.8413e-08	9.4836e-08	1.3644e-08	-9.1605e-09	8.733e-08	6.6509e-08	3.0034e-08	4.5379e-08	1.5545e-08
8.2031e-08	9.777e-09	5.0887e-08	5.5882e-08	1.0383e-07	4.3562e-08	6.0209e-08	8.563e-09	9.442e-09	5.7757e-09	6.0896e-08	-2.3135e-08	4.8536e-08	1.7125e-08	-1.2242e-07	-2.6218e-08	-4.7362e-08	8.9486e-08	-6.3488e-08	1.9947e-08	1.1101e-07	8.8962e-08	-1.406e-08	3.5102e-08	8.4647e-08	8.6936e-08	3.0011e-08	-1.6345e-09	-1.112e-07	-1.0618e-08	-8.6305e-08	2.0843e-08	6.2651e-08	1.9446e-08	9.4692e-08	1.4941e-08	-8.9232e-09	8.4358e-08	6.8592e-08	3.2734e-08	4.8966e-08	1.6053e-08
7.9759e-08	9.9398e-09	4.6848e-08	5.4123e-08	1.0154e-07	4.267e-08	5.8529e-08	8.2698e-09	8.5338e-09	6.5849e-09	6.086e-08	-2.3791e-08	5.0375e-08	1.5512e-08	-1.244e-07	-2.8005e-08	-4.7246e-08	8.8638e-08	-6.1915e-08	2.1049e-08	1.1252e-07	9.0206e-08	-1.4368e-08	3.5861e-08	8.7429e-08	8.8494e-08	3.112e-08	-2.0435e-09	-1.1153e-07	-1.1174e-08	-8.5359e-08	2.2516e-08	6.3865e-08	2.0446e-08	9.4518e-08	1.6233e-08	-8.6855e-09	8.1381e-08	7.0618e-08	3.537e-08	5.2472e-08	1.6501e-08
7.7447e-08	1.0104e-08	4.277e-08	5.232e-08	9.9197e-08	4.1761e-08	5.682e-08	7.9674e-09	7.6027e-09	7.3206e-09	6.077e-08	-2.442e-08	5.2204e-08	1.3919e-08	-1.2626e-07	-2.9722e-08	-4.7104e-08	8.776e-08	-6.0274e-08	2.2144e-08	1.1398e-07	9.1442e-08	-1.4712e-08	3.6532e-08	9.0184e-08	9.0013e-08	3.2226e-08	-2.4089e-09	-1.1178e-07	-1.1674e-08	-8.4386e-08	2.4191e-08	6.5002e-08	2.1412e-08	9.4313e-08	1.7517e-08	-8.4506e-09	7.8404e-08	7.2585e-08	3.7939e-08	5.59e-08	1.6888e-08
7.5094e-08	1.027e-08	3.8655e-08	5.0473e-08	9.6785e-08	4.0836e-08	5.508e-08	7.6581e-09	6.6481e-09	7.986e-09	6.0624e-08	-2.5022e-08	5.4023e-08	1.2349e-08	-1.28e-07	-3.1365e-08	-4.6935e-08	8.6848e-08	-5.857e-08	2.3231e-08	1.1538e-07	9.2668e-08	-1.5096e-08	3.7112e-08	9.2912e-08	9.1493e-08	3.333e-08	-2.7287e-09	-1.1197e-07	-1.2119e-08	-8.3391e-08	2.5865e-08	6.6065e-08	2.2345e-08	9.4079e-08	1.8789e-08	-8.2217e-09	7.5431e-08	7.4496e-08	4.0442e-08	5.9249e-08	1.7212e-08
7.2699e-08	1.0439e-08	3.4503e-08	4.8582e-08	9.4308e-08	3.9895e-08	5.3309e-08	7.3444e-09	5.6693e-09	8.5844e-09	6.0424e-08	-2.5597e-08	5.5833e-08	1.0803e-08	-1.296e-07	-3.2934e-08	-4.6742e-08	8.5902e-08	-5.6812e-08	2.4306e-08	1.1672e-07	9.388e-08	-1.5522e-08	3.7601e-08	9.5611e-08	9.2933e-08	3.4432e-08	-3.0013e-09	-1.1209e-07	-1.2508e-08	-8.2379e-08	2.7536e-08	6.7054e-08	2.3245e-08	9.3818e-08	2.0047e-08	-8.0018e-09	7.2469e-08	7.6349e-08	4.2876e-08	6.2521e-08	1.7475e-08
7.0261e-08	1.0611e-08	3.0318e-08	4.6646e-08	9.1766e-08	3.8938e-08	5.1506e-08	7.0286e-09	4.6659e-09	9.1195e-09	6.0168e-08	-2.6144e-08	5.7634e-08	9.2814e-09	-1.3107e-07	-3.4428e-08	-4.6525e-08	8.4919e-08	-5.5006e-08	2.5369e-08	1.1801e-07	9.5076e-08	-1.5993e-08	3.7996e-08	9.828e-08	9.4332e-08	3.5532e-08	-3.2252e-09	-1.1212e-07	-1.284e-08	-8.1354e-08	2.9199e-08	6.7968e-08	2.4112e-08	9.353e-08	2.1288e-08	-7.794e-09	6.9522e-08	7.8145e-08	4.5241e-08	6.5716e-08	1.7674e-08
6.778e-08	1.0788e-08	2.6101e-08	4.4665e-08	8.9159e-08	3.7968e-08	4.9671e-08	6.7135e-09	3.6374e-09	9.5949e-09	5.9857e-08	-2.6664e-08	5.9426e-08	7.7864e-09	-1.324e-07	-3.5845e-08	-4.6284e-08	8.3896e-08	-5.316e-08	2.6415e-08	1.1925e-07	9.6254e-08	-1.6511e-08	3.8296e-08	1.0092e-07	9.569e-08	3.6631e-08	-3.3991e-09	-1.1208e-07	-1.3117e-08	-8.032e-08	3.0853e-08	6.881e-08	2.4946e-08	9.3217e-08	2.2511e-08	-7.6013e-09	6.6595e-08	7.9885e-08	4.7536e-08	6.8837e-08	1.781e-08
