-2.9883e-09	-6.0405e-10	1.3213e-08	-6.2481e-09	3.2018e-08	1.8671e-08	-1.0466e-08	-8.6965e-09	-8.1901e-08	-3.2708e-08	-8.1212e-09	-7.2984e-08	-1.3924e-08	-2.2637e-08	-3.7599e-08	-2.338e-08	-1.1867e-08	6.1007e-09	4.096e-09	-3.596e-08	-2.087e-08	-4.0296e-08	-2.1072e-08	1.4187e-09	-1.9993e-08	-4.884e-08	-5.8559e-09	2.0584e-08	-8.8033e-08	-3.4287e-08	-4.6723e-08	7.688e-09	-4.4778e-08	-3.7297e-08	-1.1167e-08	-1.9143e-08	-3.2255e-08	1.3764e-09	-4.2115e-08	1.2134e-08	-5.129e-08	-3.9795e-08
-2.6711e-09	-3.0332e-09	1.3769e-08	-1.3355e-08	4.1528e-08	1.8374e-08	-1.1904e-08	-7.72e-09	-7.5862e-08	-8.0019e-09	-8.5557e-09	-7.4799e-08	-2.4032e-08	-2.2417e-08	-4.4687e-08	-2.5062e-08	-1.8746e-08	7.7211e-09	1.0567e-08	-3.6024e-08	-2.2555e-08	-3.8166e-08	-2.4008e-08	-3.8413e-09	-2.1259e-08	-3.8344e-08	8.086e-09	1.753e-08	-1.1745e-07	-3.4009e-08	-4.7631e-08	1.4716e-08	-4.3448e-08	-3.6775e-08	-1.121e-08	-2.3939e-08	-1.2184e-08	-3.056e-09	-4.6311e-08	1.8438e-08	-5.5761e-08	-4.2633e-08
-2.4159e-09	-5.5598e-09	1.409e-08	-2.0497e-08	5.0381e-08	1.805e-08	-1.3391e-08	-6.8028e-09	-7.0152e-08	1.7476e-08	-8.9473e-09	-7.6588e-08	-3.3715e-08	-2.2333e-08	-5.1392e-08	-2.6606e-08	-2.4807e-08	9.4224e-09	1.7092e-08	-3.5962e-08	-2.4313e-08	-3.5857e-08	-2.6262e-08	-9.224e-09	-2.277e-08	-2.7592e-08	2.1895e-08	1.4254e-08	-1.4656e-07	-3.3662e-08	-4.8262e-08	2.1508e-08	-4.2029e-08	-3.6229e-08	-1.1474e-08	-2.8812e-08	7.7378e-09	-7.3949e-09	-5.0207e-08	2.4481e-08	-6.003e-08	-4.5502e-08
-2.2314e-09	-8.1726e-09	1.4148e-08	-2.763e-08	5.846e-08	1.769e-08	-1.4931e-08	-5.9712e-09	-6.474e-08	4.3424e-08	-9.2824e-09	-7.8353e-08	-4.2941e-08	-2.2381e-08	-5.7694e-08	-2.8003e-08	-3.0008e-08	1.1197e-08	2.3635e-08	-3.5776e-08	-2.6123e-08	-3.3384e-08	-2.7841e-08	-1.4708e-08	-2.4524e-08	-1.672e-08	3.5454e-08	1.0767e-08	-1.7508e-07	-3.3246e-08	-4.8632e-08	2.804e-08	-4.0527e-08	-3.5668e-08	-1.1967e-08	-3.3737e-08	2.7334e-08	-1.162e-08	-5.3764e-08	3.0222e-08	-6.4083e-08	-4.8384e-08
-2.1253e-09	-1.086e-08	1.3919e-08	-3.4712e-08	6.5661e-08	1.7288e-08	-1.6523e-08	-5.2483e-09	-5.9589e-08	6.954e-08	-9.5479e-09	-8.0098e-08	-5.1689e-08	-2.2555e-08	-6.3573e-08	-2.9245e-08	-3.4322e-08	1.3035e-08	3.0162e-08	-3.5468e-08	-2.7964e-08	-3.0762e-08	-2.8756e-08	-2.0274e-08	-2.6514e-08	-5.8585e-09	4.8652e-08	7.0799e-09	-2.0275e-07	-3.2757e-08	-4.8757e-08	3.4291e-08	-3.8951e-08	-3.5097e-08	-1.2695e-08	-3.8689e-08	4.6439e-08	-1.5712e-08	-5.6951e-08	3.5628e-08	-6.791e-08	-5.126e-08
-2.1043e-09	-1.3611e-08	1.3385e-08	-4.1703e-08	7.1899e-08	1.6832e-08	-1.8168e-08	-4.6535e-09	-5.4657e-08	9.5527e-08	-9.7316e-09	-8.1824e-08	-5.9943e-08	-2.2847e-08	-6.9015e-08	-3.0323e-08	-3.7733e-08	1.4928e-08	3.6638e-08	-3.504e-08	-2.9814e-08	-2.8008e-08	-2.9026e-08	-2.5901e-08	-2.8731e-08	4.8674e-09	6.1389e-08	3.2086e-09	-2.2933e-07	-3.2195e-08	-4.8658e-08	4.0244e-08	-3.7306e-08	-3.4522e-08	-1.3659e-08	-4.3643e-08	6.4897e-08	-1.9654e-08	-5.9741e-08	4.0669e-08	-7.1498e-08	-5.4111e-08
-2.1739e-09	-1.6412e-08	1.2532e-08	-4.8564e-08	7.7108e-08	1.6315e-08	-1.9865e-08	-4.2012e-09	-4.9899e-08	1.211e-07	-9.8228e-09	-8.3531e-08	-6.7701e-08	-2.3246e-08	-7.4008e-08	-3.1233e-08	-4.0235e-08	1.6865e-08	4.3029e-08	-3.4498e-08	-3.1651e-08	-2.5137e-08	-2.8676e-08	-3.1569e-08	-3.1161e-08	1.5342e-08	7.3576e-08	-8.3033e-10	-2.5459e-07	-3.1559e-08	-4.8355e-08	4.5882e-08	-3.5599e-08	-3.3949e-08	-1.4859e-08	-4.8572e-08	8.2568e-08	-2.3432e-08	-6.2117e-08	4.5322e-08	-7.484e-08	-5.6917e-08
-2.3381e-09	-1.9252e-08	1.1349e-08	-5.5258e-08	8.1243e-08	1.5727e-08	-2.1612e-08	-3.9008e-09	-4.5272e-08	1.46e-07	-9.8124e-09	-8.5222e-08	-7.4965e-08	-2.3737e-08	-7.8542e-08	-3.1972e-08	-4.1834e-08	1.8834e-08	4.9301e-08	-3.3849e-08	-3.3453e-08	-2.2166e-08	-2.7737e-08	-3.726e-08	-3.3787e-08	2.5459e-08	8.5135e-08	-5.018e-09	-2.7833e-07	-3.0847e-08	-4.7869e-08	5.1189e-08	-3.3836e-08	-3.3381e-08	-1.6291e-08	-5.3451e-08	9.9327e-08	-2.7032e-08	-6.4066e-08	4.957e-08	-7.7926e-08	-5.9657e-08
-2.5995e-09	-2.212e-08	9.8354e-09	-6.1752e-08	8.4282e-08	1.5058e-08	-2.3406e-08	-3.7562e-09	-4.073e-08	1.6998e-07	-9.6926e-09	-8.6894e-08	-8.1745e-08	-2.4305e-08	-8.2608e-08	-3.2537e-08	-4.2547e-08	2.0823e-08	5.5424e-08	-3.3101e-08	-3.5201e-08	-1.9112e-08	-2.6242e-08	-4.2956e-08	-3.6588e-08	3.5127e-08	9.6004e-08	-9.3339e-09	-3.0038e-07	-3.0061e-08	-4.722e-08	5.6153e-08	-3.2024e-08	-3.282e-08	-1.795e-08	-5.8255e-08	1.1507e-07	-3.0443e-08	-6.5582e-08	5.3404e-08	-8.075e-08	-6.2308e-08
-2.9594e-09	-2.5003e-08	7.9915e-09	-6.8015e-08	8.6225e-08	1.4303e-08	-2.5241e-08	-3.7655e-09	-3.6232e-08	1.9282e-07	-9.4571e-09	-8.8542e-08	-8.8056e-08	-2.493e-08	-8.6197e-08	-3.2929e-08	-4.24e-08	2.2819e-08	6.1366e-08	-3.2262e-08	-3.6875e-08	-1.599e-08	-2.423e-08	-4.8638e-08	-3.954e-08	4.4267e-08	1.0613e-07	-1.3756e-08	-3.2061e-07	-2.9199e-08	-4.643e-08	6.0762e-08	-3.0167e-08	-3.2271e-08	-1.9826e-08	-6.2959e-08	1.297e-07	-3.3658e-08	-6.6668e-08	5.6818e-08	-8.3305e-08	-6.4849e-08
-3.4173e-09	-2.7891e-08	5.8248e-09	-7.4018e-08	8.7094e-08	1.3452e-08	-2.7114e-08	-3.9217e-09	-3.1742e-08	2.1431e-07	-9.1004e-09	-9.016e-08	-9.3914e-08	-2.5595e-08	-8.9305e-08	-3.3148e-08	-4.1428e-08	2.4809e-08	6.71e-08	-3.1341e-08	-3.8459e-08	-1.2815e-08	-2.1743e-08	-5.429e-08	-4.2617e-08	5.2813e-08	1.1548e-07	-1.8261e-08	-3.3889e-07	-2.8263e-08	-4.5517e-08	6.5005e-08	-2.8271e-08	-3.1732e-08	-2.1908e-08	-6.7538e-08	1.4314e-07	-3.667e-08	-6.7334e-08	5.9813e-08	-8.5587e-08	-6.7258e-08
-3.9716e-09	-3.0773e-08	3.3472e-09	-7.9738e-08	8.6932e-08	1.2499e-08	-2.9016e-08	-4.2125e-09	-2.723e-08	2.3428e-07	-8.6181e-09	-9.1738e-08	-9.9341e-08	-2.6279e-08	-9.1925e-08	-3.3197e-08	-3.9677e-08	2.6778e-08	7.2598e-08	-3.035e-08	-3.9936e-08	-9.6023e-09	-1.8824e-08	-5.9895e-08	-4.579e-08	6.0716e-08	1.2403e-07	-2.2827e-08	-3.5515e-07	-2.7253e-08	-4.4501e-08	6.8875e-08	-2.6341e-08	-3.1203e-08	-2.4181e-08	-7.1969e-08	1.5534e-07	-3.9474e-08	-6.7593e-08	6.2396e-08	-8.7592e-08	-6.9513e-08
-4.619e-09	-3.364e-08	5.7501e-10	-8.5151e-08	8.5795e-08	1.144e-08	-3.0942e-08	-4.6211e-09	-2.2671e-08	2.5258e-07	-8.0077e-09	-9.326e-08	-1.0436e-07	-2.696e-08	-9.4052e-08	-3.3081e-08	-3.7199e-08	2.8714e-08	7.7835e-08	-2.9299e-08	-4.1296e-08	-6.3666e-09	-1.5521e-08	-6.5439e-08	-4.9029e-08	6.7935e-08	1.3175e-07	-2.7428e-08	-3.6933e-07	-2.6171e-08	-4.3399e-08	7.2364e-08	-2.438e-08	-3.0684e-08	-2.6628e-08	-7.6228e-08	1.6626e-07	-4.2068e-08	-6.7467e-08	6.4577e-08	-8.9319e-08	-7.1594e-08
-5.3549e-09	-3.6482e-08	-2.4709e-09	-9.0241e-08	8.3758e-08	1.027e-08	-3.2884e-08	-5.1267e-09	-1.8048e-08	2.691e-07	-7.2683e-09	-9.4711e-08	-1.0898e-07	-2.7618e-08	-9.5685e-08	-3.2806e-08	-3.4051e-08	3.0601e-08	8.2788e-08	-2.82e-08	-4.2527e-08	-3.1218e-09	-1.1879e-08	-7.0905e-08	-5.2305e-08	7.4444e-08	1.3865e-07	-3.2041e-08	-3.8139e-07	-2.5018e-08	-4.2228e-08	7.5468e-08	-2.2393e-08	-3.0173e-08	-2.9229e-08	-8.0293e-08	1.7588e-07	-4.4451e-08	-6.6981e-08	6.6369e-08	-9.0766e-08	-7.3479e-08
-6.1736e-09	-3.929e-08	-5.7658e-09	-9.4991e-08	8.0904e-08	8.9844e-09	-3.4833e-08	-5.7052e-09	-1.335e-08	2.8372e-07	-6.4016e-09	-9.607e-08	-1.1323e-07	-2.8232e-08	-9.6823e-08	-3.2378e-08	-3.0298e-08	3.2428e-08	8.7437e-08	-2.7062e-08	-4.3625e-08	1.1842e-10	-7.9491e-09	-7.6279e-08	-5.5585e-08	8.023e-08	1.4472e-07	-3.6643e-08	-3.9133e-07	-2.3796e-08	-4.1002e-08	7.8187e-08	-2.0382e-08	-2.9666e-08	-3.1964e-08	-8.4144e-08	1.8418e-07	-4.6623e-08	-6.6164e-08	6.7789e-08	-9.1936e-08	-7.5151e-08
-7.068e-09	-4.2057e-08	-9.2809e-09	-9.9388e-08	7.7327e-08	7.5836e-09	-3.678e-08	-6.3304e-09	-8.5714e-09	2.9638e-07	-5.4125e-09	-9.7319e-08	-1.1712e-07	-2.8782e-08	-9.7466e-08	-3.1807e-08	-2.6008e-08	3.4181e-08	9.1763e-08	-2.5897e-08	-4.4585e-08	3.3401e-09	-3.7809e-09	-8.1548e-08	-5.884e-08	8.5289e-08	1.4997e-07	-4.1209e-08	-3.9917e-07	-2.2509e-08	-3.9737e-08	8.0522e-08	-1.835e-08	-2.916e-08	-3.481e-08	-8.7761e-08	1.9117e-07	-4.8587e-08	-6.5046e-08	6.8858e-08	-9.283e-08	-7.6592e-08
-8.0305e-09	-4.4777e-08	-1.2984e-08	-1.0342e-07	7.3127e-08	6.0679e-09	-3.8715e-08	-6.9746e-09	-3.7144e-09	3.0702e-07	-4.3091e-09	-9.8436e-08	-1.2067e-07	-2.9253e-08	-9.7619e-08	-3.11e-08	-2.1251e-08	3.5848e-08	9.5751e-08	-2.4716e-08	-4.5409e-08	6.5294e-09	5.7339e-10	-8.6699e-08	-6.2041e-08	8.9629e-08	1.544e-07	-4.5716e-08	-4.0495e-07	-2.116e-08	-3.8444e-08	8.2481e-08	-1.6299e-08	-2.8652e-08	-3.7743e-08	-9.1128e-08	1.9685e-07	-5.0343e-08	-6.366e-08	6.9595e-08	-9.3452e-08	-7.7786e-08
-9.0528e-09	-4.7443e-08	-1.6841e-08	-1.0709e-07	6.8406e-08	4.4407e-09	-4.0627e-08	-7.6098e-09	1.2154e-09	3.1561e-07	-3.103e-09	-9.9402e-08	-1.2389e-07	-2.9628e-08	-9.7288e-08	-3.0271e-08	-1.6098e-08	3.742e-08	9.9387e-08	-2.3529e-08	-4.6099e-08	9.6722e-09	5.0612e-09	-9.1719e-08	-6.5159e-08	9.327e-08	1.5804e-07	-5.0142e-08	-4.0873e-07	-1.9754e-08	-3.7135e-08	8.4075e-08	-1.4231e-08	-2.8138e-08	-4.0737e-08	-9.4227e-08	2.0125e-07	-5.1895e-08	-6.2041e-08	7.0021e-08	-9.3806e-08	-7.8721e-08
-1.0126e-08	-5.0049e-08	-2.0814e-08	-1.1038e-07	6.3268e-08	2.7077e-09	-4.2506e-08	-8.2086e-09	6.2075e-09	3.2213e-07	-1.8088e-09	-1.002e-07	-1.2678e-07	-2.9897e-08	-9.6482e-08	-2.933e-08	-1.0621e-08	3.8888e-08	1.0266e-07	-2.2346e-08	-4.6665e-08	1.2754e-08	9.6293e-09	-9.6596e-08	-6.8167e-08	9.6241e-08	1.609e-07	-5.4465e-08	-4.106e-07	-1.8298e-08	-3.5822e-08	8.5321e-08	-1.215e-08	-2.7613e-08	-4.3765e-08	-9.7045e-08	2.0439e-07	-5.3245e-08	-6.0222e-08	7.0154e-08	-9.3898e-08	-7.9385e-08
-1.1242e-08	-5.2593e-08	-2.4862e-08	-1.133e-07	5.7819e-08	8.7701e-10	-4.4338e-08	-8.7453e-09	1.1247e-08	3.2659e-07	-4.436e-10	-1.0081e-07	-1.2935e-07	-3.0051e-08	-9.5212e-08	-2.8292e-08	-4.8929e-09	4.0246e-08	1.0557e-07	-2.1177e-08	-4.7117e-08	1.5761e-08	1.4224e-08	-1.0132e-07	-7.1042e-08	9.858e-08	1.63e-07	-5.8665e-08	-4.1065e-07	-1.6799e-08	-3.4515e-08	8.6241e-08	-1.0056e-08	-2.7074e-08	-4.6801e-08	-9.957e-08	2.0631e-07	-5.4399e-08	-5.8238e-08	7.001e-08	-9.3733e-08	-7.9771e-08
-1.2392e-08	-5.507e-08	-2.8944e-08	-1.1585e-07	5.2159e-08	-1.0406e-09	-4.6111e-08	-9.196e-09	1.6317e-08	3.2901e-07	9.7358e-10	-1.0122e-07	-1.3161e-07	-3.0083e-08	-9.3488e-08	-2.7171e-08	1.0166e-09	4.1489e-08	1.0811e-07	-2.0031e-08	-4.7467e-08	1.8677e-08	1.879e-08	-1.0588e-07	-7.3761e-08	1.0033e-07	1.6437e-07	-6.2722e-08	-4.0898e-07	-1.5266e-08	-3.3222e-08	8.686e-08	-7.9518e-09	-2.6517e-08	-4.9818e-08	-1.0179e-07	2.0706e-07	-5.536e-08	-5.6121e-08	6.96e-08	-9.332e-08	-7.9872e-08
-1.3567e-08	-5.7479e-08	-3.3018e-08	-1.1802e-07	4.6384e-08	-3.0319e-09	-4.781e-08	-9.5398e-09	2.1393e-08	3.2944e-07	2.4224e-09	-1.0141e-07	-1.3355e-07	-2.9993e-08	-9.1323e-08	-2.5984e-08	7.0382e-09	4.2617e-08	1.1028e-07	-1.8917e-08	-4.7732e-08	2.1487e-08	2.3272e-08	-1.1027e-07	-7.6305e-08	1.0155e-07	1.6501e-07	-6.6622e-08	-4.0572e-07	-1.3711e-08	-3.1953e-08	8.7208e-08	-5.8413e-09	-2.5939e-08	-5.2789e-08	-1.037e-07	2.0667e-07	-5.6136e-08	-5.3902e-08	6.8933e-08	-9.2668e-08	-7.9685e-08
-1.4759e-08	-5.9818e-08	-3.7039e-08	-1.1983e-07	4.0585e-08	-5.0818e-09	-4.9422e-08	-9.7589e-09	2.6445e-08	3.2792e-07	3.8817e-09	-1.0139e-07	-1.3519e-07	-2.978e-08	-8.873e-08	-2.475e-08	1.3106e-08	4.363e-08	1.1208e-07	-1.784e-08	-4.7928e-08	2.4178e-08	2.7612e-08	-1.1449e-07	-7.8658e-08	1.0229e-07	1.6496e-07	-7.0349e-08	-4.0098e-07	-1.2146e-08	-3.0716e-08	8.7319e-08	-3.7278e-09	-2.5337e-08	-5.5687e-08	-1.053e-07	2.0521e-07	-5.6733e-08	-5.1611e-08	6.801e-08	-9.1786e-08	-7.9212e-08
-1.5958e-08	-6.2087e-08	-4.0965e-08	-1.2128e-07	3.4844e-08	-7.1733e-09	-5.093e-08	-9.8389e-09	3.1433e-08	3.2455e-07	5.3301e-09	-1.0113e-07	-1.3651e-07	-2.9452e-08	-8.5723e-08	-2.3488e-08	1.9156e-08	4.4533e-08	1.1353e-07	-1.6805e-08	-4.8075e-08	2.6732e-08	3.1753e-08	-1.1851e-07	-8.0806e-08	1.026e-07	1.6424e-07	-7.3893e-08	-3.949e-07	-1.0585e-08	-2.9522e-08	8.7227e-08	-1.6157e-09	-2.4709e-08	-5.8488e-08	-1.0657e-07	2.0275e-07	-5.7159e-08	-4.9274e-08	6.6829e-08	-9.0689e-08	-7.8456e-08
-1.7157e-08	-6.4286e-08	-4.4757e-08	-1.2237e-07	2.9237e-08	-9.2884e-09	-5.232e-08	-9.7694e-09	3.631e-08	3.1942e-07	6.7469e-09	-1.0065e-07	-1.3754e-07	-2.9015e-08	-8.2318e-08	-2.2217e-08	2.5129e-08	4.5332e-08	1.1464e-07	-1.5815e-08	-4.8192e-08	2.9137e-08	3.5633e-08	-1.2234e-07	-8.2738e-08	1.0255e-07	1.6288e-07	-7.7247e-08	-3.8759e-07	-9.0441e-09	-2.8377e-08	8.6968e-08	4.8925e-10	-2.4053e-08	-6.1167e-08	-1.0753e-07	1.9935e-07	-5.7422e-08	-4.6915e-08	6.5383e-08	-8.9388e-08	-7.7425e-08
-1.8345e-08	-6.6417e-08	-4.8375e-08	-1.2312e-07	2.3827e-08	-1.1408e-08	-5.3577e-08	-9.5437e-09	4.1016e-08	3.1264e-07	8.1135e-09	-9.9919e-08	-1.3827e-07	-2.8483e-08	-7.8532e-08	-2.0958e-08	3.097e-08	4.6038e-08	1.1542e-07	-1.487e-08	-4.8299e-08	3.1379e-08	3.9196e-08	-1.2598e-07	-8.4446e-08	1.0219e-07	1.6091e-07	-8.0407e-08	-3.792e-07	-7.5388e-09	-2.7289e-08	8.6576e-08	2.5805e-09	-2.3369e-08	-6.37e-08	-1.0818e-07	1.951e-07	-5.7531e-08	-4.4556e-08	6.3661e-08	-8.79e-08	-7.6128e-08
-1.9512e-08	-6.8481e-08	-5.1786e-08	-1.2353e-07	1.8672e-08	-1.3514e-08	-5.4686e-08	-9.159e-09	4.5485e-08	3.0434e-07	9.4139e-09	-9.8947e-08	-1.3871e-07	-2.7871e-08	-7.4388e-08	-1.9732e-08	3.6627e-08	4.6663e-08	1.1591e-07	-1.3971e-08	-4.8418e-08	3.3446e-08	4.2384e-08	-1.2941e-07	-8.5923e-08	1.0157e-07	1.5836e-07	-8.3374e-08	-3.6984e-07	-6.0869e-09	-2.6268e-08	8.6088e-08	4.6501e-09	-2.2657e-08	-6.6068e-08	-1.0852e-07	1.9006e-07	-5.7493e-08	-4.2216e-08	6.1648e-08	-8.6242e-08	-7.4582e-08
-2.0648e-08	-7.0481e-08	-5.4959e-08	-1.2361e-07	1.3817e-08	-1.5586e-08	-5.5635e-08	-8.6164e-09	4.9642e-08	2.9466e-07	1.0636e-08	-9.7724e-08	-1.3886e-07	-2.7198e-08	-6.9913e-08	-1.856e-08	4.2055e-08	4.7223e-08	1.1611e-07	-1.3115e-08	-4.8568e-08	3.5326e-08	4.5142e-08	-1.3264e-07	-8.7169e-08	1.0072e-07	1.5528e-07	-8.6151e-08	-3.5963e-07	-4.706e-09	-2.5319e-08	8.5535e-08	6.6895e-09	-2.1918e-08	-6.825e-08	-1.0856e-07	1.8434e-07	-5.7319e-08	-3.9912e-08	5.9326e-08	-8.4431e-08	-7.2805e-08
-2.1743e-08	-7.2418e-08	-5.7867e-08	-1.2337e-07	9.2983e-09	-1.7606e-08	-5.641e-08	-7.9207e-09	5.3411e-08	2.8377e-07	1.1772e-08	-9.6246e-08	-1.3874e-07	-2.6483e-08	-6.514e-08	-1.7461e-08	4.7211e-08	4.7735e-08	1.1607e-07	-1.2299e-08	-4.877e-08	3.7012e-08	4.7424e-08	-1.3566e-07	-8.8184e-08	9.97e-08	1.517e-07	-8.8746e-08	-3.4869e-07	-3.4139e-09	-2.4448e-08	8.4945e-08	8.689e-09	-2.1152e-08	-7.0231e-08	-1.0832e-07	1.7802e-07	-5.7017e-08	-3.7657e-08	5.6675e-08	-8.2489e-08	-7.0818e-08
-2.2787e-08	-7.4293e-08	-6.0489e-08	-1.2282e-07	5.145e-09	-1.9557e-08	-5.7001e-08	-7.0803e-09	5.6711e-08	2.7181e-07	1.2817e-08	-9.4503e-08	-1.3836e-07	-2.5749e-08	-6.0107e-08	-1.6457e-08	5.2061e-08	4.822e-08	1.158e-07	-1.1518e-08	-4.9042e-08	3.85e-08	4.9188e-08	-1.3848e-07	-8.8972e-08	9.8524e-08	1.4766e-07	-9.1171e-08	-3.3714e-07	-2.2278e-09	-2.3658e-08	8.4343e-08	1.0638e-08	-2.0363e-08	-7.1994e-08	-1.0781e-07	1.7119e-07	-5.6597e-08	-3.5463e-08	5.3677e-08	-8.0437e-08	-6.8646e-08
-2.377e-08	-7.6108e-08	-6.2807e-08	-1.2197e-07	1.377e-09	-2.142e-08	-5.7399e-08	-6.1069e-09	5.9463e-08	2.5896e-07	1.377e-08	-9.2491e-08	-1.3771e-07	-2.502e-08	-5.4863e-08	-1.5564e-08	5.6572e-08	4.8697e-08	1.1535e-07	-1.0766e-08	-4.9399e-08	3.9785e-08	5.0399e-08	-1.411e-07	-8.9539e-08	9.7221e-08	1.4322e-07	-9.3442e-08	-3.2509e-07	-1.1634e-09	-2.2952e-08	8.3745e-08	1.2526e-08	-1.9552e-08	-7.3529e-08	-1.0704e-07	1.6394e-07	-5.6067e-08	-3.3338e-08	5.0312e-08	-7.8299e-08	-6.6315e-08
-2.4683e-08	-7.7861e-08	-6.4808e-08	-1.2082e-07	-1.9923e-09	-2.3182e-08	-5.7594e-08	-5.0152e-09	6.1591e-08	2.4539e-07	1.4634e-08	-9.0202e-08	-1.3681e-07	-2.4317e-08	-4.9461e-08	-1.4801e-08	6.0719e-08	4.9189e-08	1.1474e-07	-1.0037e-08	-4.9854e-08	4.0871e-08	5.1034e-08	-1.4352e-07	-8.9897e-08	9.5808e-08	1.384e-07	-9.5578e-08	-3.1267e-07	-2.3488e-10	-2.2329e-08	8.3164e-08	1.4343e-08	-1.8722e-08	-7.4826e-08	-1.0605e-07	1.5638e-07	-5.5435e-08	-3.1291e-08	4.6567e-08	-7.61e-08	-6.3854e-08
-2.5518e-08	-7.955e-08	-6.6484e-08	-1.1939e-07	-4.9557e-09	-2.483e-08	-5.7582e-08	-3.8224e-09	6.3029e-08	2.313e-07	1.5414e-08	-8.7634e-08	-1.3567e-07	-2.3664e-08	-4.3966e-08	-1.4183e-08	6.4482e-08	4.9718e-08	1.1401e-07	-9.3217e-09	-5.0414e-08	4.1762e-08	5.1078e-08	-1.4575e-07	-9.0055e-08	9.4298e-08	1.3327e-07	-9.7601e-08	-2.9999e-07	5.4646e-10	-2.1785e-08	8.2605e-08	1.6077e-08	-1.7876e-08	-7.5879e-08	-1.0485e-07	1.4859e-07	-5.4707e-08	-2.9327e-08	4.2431e-08	-7.3866e-08	-6.1292e-08
-2.627e-08	-8.117e-08	-6.7833e-08	-1.1768e-07	-7.5113e-09	-2.6352e-08	-5.7355e-08	-2.5479e-09	6.3721e-08	2.1686e-07	1.6117e-08	-8.4784e-08	-1.3429e-07	-2.3083e-08	-3.8447e-08	-1.3726e-08	6.7843e-08	5.0306e-08	1.1318e-07	-8.6121e-09	-5.1086e-08	4.2466e-08	5.0526e-08	-1.4778e-07	-9.0028e-08	9.2702e-08	1.2787e-07	-9.9533e-08	-2.8716e-07	1.1728e-09	-2.1314e-08	8.2069e-08	1.7719e-08	-1.7019e-08	-7.6684e-08	-1.0347e-07	1.4069e-07	-5.3888e-08	-2.7452e-08	3.7898e-08	-7.1623e-08	-5.8657e-08
-2.6933e-08	-8.2716e-08	-6.8855e-08	-1.157e-07	-9.6624e-09	-2.7742e-08	-5.6911e-08	-1.2125e-09	6.3627e-08	2.0226e-07	1.6754e-08	-8.1656e-08	-1.3268e-07	-2.2593e-08	-3.2981e-08	-1.3439e-08	7.0789e-08	5.0972e-08	1.1229e-07	-7.8978e-09	-5.1869e-08	4.2994e-08	4.9379e-08	-1.4962e-07	-8.983e-08	9.1025e-08	1.2224e-07	-1.014e-07	-2.7429e-07	1.6404e-09	-2.0909e-08	8.1555e-08	1.926e-08	-1.6153e-08	-7.7241e-08	-1.0193e-07	1.3276e-07	-5.2983e-08	-2.5673e-08	3.297e-08	-6.9394e-08	-5.598e-08
-2.7503e-08	-8.418e-08	-6.9557e-08	-1.1348e-07	-1.1417e-08	-2.8996e-08	-5.6246e-08	1.6206e-10	6.2721e-08	1.877e-07	1.7338e-08	-7.8255e-08	-1.3085e-07	-2.2211e-08	-2.7644e-08	-1.3332e-08	7.3313e-08	5.1734e-08	1.1136e-07	-7.1678e-09	-5.2759e-08	4.3361e-08	4.7653e-08	-1.5128e-07	-8.9477e-08	8.9269e-08	1.1644e-07	-1.0322e-07	-2.6148e-07	1.9506e-09	-2.0559e-08	8.1061e-08	2.0693e-08	-1.5281e-08	-7.7552e-08	-1.0027e-07	1.249e-07	-5.1992e-08	-2.3994e-08	2.7653e-08	-6.7203e-08	-5.3288e-08
-2.7978e-08	-8.5553e-08	-6.995e-08	-1.1101e-07	-1.2789e-08	-3.011e-08	-5.5356e-08	1.5536e-09	6.0995e-08	1.7336e-07	1.7881e-08	-7.4593e-08	-1.2881e-07	-2.1949e-08	-2.2513e-08	-1.341e-08	7.5409e-08	5.2605e-08	1.1042e-07	-6.4098e-09	-5.3748e-08	4.3583e-08	4.5369e-08	-1.5275e-07	-8.8983e-08	8.7435e-08	1.1053e-07	-1.0502e-07	-2.4885e-07	2.1104e-09	-2.0251e-08	8.0582e-08	2.2011e-08	-1.4406e-08	-7.7619e-08	-9.8516e-08	1.1719e-07	-5.0916e-08	-2.2421e-08	2.1961e-08	-6.5068e-08	-5.0607e-08
-2.8353e-08	-8.6824e-08	-7.0046e-08	-1.0831e-07	-1.3795e-08	-3.1087e-08	-5.4239e-08	2.9404e-09	5.846e-08	1.5943e-07	1.8401e-08	-7.0686e-08	-1.2657e-07	-2.1816e-08	-1.7664e-08	-1.3678e-08	7.7078e-08	5.3596e-08	1.0948e-07	-5.6109e-09	-5.4825e-08	4.3681e-08	4.2561e-08	-1.5404e-07	-8.8364e-08	8.5522e-08	1.0456e-07	-1.0682e-07	-2.3649e-07	2.1322e-09	-1.997e-08	8.0117e-08	2.321e-08	-1.353e-08	-7.7451e-08	-9.6689e-08	1.0973e-07	-4.9754e-08	-2.0959e-08	1.5917e-08	-6.3005e-08	-4.7963e-08
-2.863e-08	-8.798e-08	-6.9863e-08	-1.054e-07	-1.4455e-08	-3.1928e-08	-5.2891e-08	4.3014e-09	5.5143e-08	1.461e-07	1.8911e-08	-6.6551e-08	-1.2417e-07	-2.1814e-08	-1.3166e-08	-1.4134e-08	7.8322e-08	5.4712e-08	1.0855e-07	-4.7577e-09	-5.5975e-08	4.3676e-08	3.9271e-08	-1.5513e-07	-8.7636e-08	8.3532e-08	9.858e-08	-1.0863e-07	-2.2448e-07	2.0349e-09	-1.9701e-08	7.9665e-08	2.4286e-08	-1.2653e-08	-7.7055e-08	-9.4818e-08	1.026e-07	-4.8505e-08	-1.9612e-08	9.5491e-09	-6.1025e-08	-4.5377e-08
-2.8805e-08	-8.901e-08	-6.942e-08	-1.0229e-07	-1.479e-08	-3.2639e-08	-5.131e-08	5.617e-09	5.1089e-08	1.3357e-07	1.9428e-08	-6.2211e-08	-1.2161e-07	-2.1941e-08	-9.0796e-09	-1.4774e-08	7.9148e-08	5.5954e-08	1.0765e-07	-3.8367e-09	-5.7183e-08	4.3592e-08	3.555e-08	-1.5604e-07	-8.6813e-08	8.1465e-08	9.2648e-08	-1.1047e-07	-2.129e-07	1.843e-09	-1.9427e-08	7.9227e-08	2.524e-08	-1.1777e-08	-7.6441e-08	-9.2925e-08	9.5866e-08	-4.7164e-08	-1.8385e-08	2.8974e-09	-5.9136e-08	-4.2869e-08
-2.8881e-08	-8.9898e-08	-6.8739e-08	-9.8997e-08	-1.4825e-08	-3.3227e-08	-4.9496e-08	6.8696e-09	4.6363e-08	1.2199e-07	1.9966e-08	-5.7687e-08	-1.1894e-07	-2.2189e-08	-5.459e-09	-1.5593e-08	7.9567e-08	5.7316e-08	1.0678e-07	-2.8345e-09	-5.843e-08	4.3456e-08	3.1458e-08	-1.5674e-07	-8.5906e-08	7.9326e-08	8.6815e-08	-1.1233e-07	-2.0183e-07	1.5869e-09	-1.9128e-08	7.8805e-08	2.6071e-08	-1.09e-08	-7.5621e-08	-9.1031e-08	8.9603e-08	-4.573e-08	-1.7282e-08	-3.9912e-09	-5.7337e-08	-4.0454e-08
-2.8857e-08	-9.0632e-08	-6.7841e-08	-9.5544e-08	-1.4581e-08	-3.3702e-08	-4.7449e-08	8.0441e-09	4.1045e-08	1.1153e-07	2.054e-08	-5.3002e-08	-1.1619e-07	-2.2543e-08	-2.3459e-09	-1.6578e-08	7.9592e-08	5.8787e-08	1.0594e-07	-1.7384e-09	-5.9699e-08	4.3291e-08	2.7061e-08	-1.5723e-07	-8.4927e-08	7.7124e-08	8.113e-08	-1.1423e-07	-1.9132e-07	1.3022e-09	-1.8786e-08	7.8404e-08	2.6783e-08	-1.0022e-08	-7.4607e-08	-8.9154e-08	8.3867e-08	-4.4196e-08	-1.6306e-08	-1.106e-08	-5.5627e-08	-3.8147e-08
-2.8734e-08	-9.1198e-08	-6.6748e-08	-9.1947e-08	-1.4082e-08	-3.4072e-08	-4.5171e-08	9.1283e-09	3.5233e-08	1.0235e-07	2.1164e-08	-4.8176e-08	-1.1339e-07	-2.2985e-08	2.2942e-10	-1.7717e-08	7.9242e-08	6.0354e-08	1.0512e-07	-5.3677e-10	-6.0969e-08	4.3125e-08	2.2433e-08	-1.575e-07	-8.3886e-08	7.4871e-08	7.5638e-08	-1.1615e-07	-1.8141e-07	1.0289e-09	-1.8381e-08	7.803e-08	2.7379e-08	-9.1398e-09	-7.3411e-08	-8.7309e-08	7.8706e-08	-4.2561e-08	-1.5461e-08	-1.8246e-08	-5.3994e-08	-3.5958e-08
-2.8514e-08	-9.1582e-08	-6.5482e-08	-8.8225e-08	-1.3349e-08	-3.4347e-08	-4.2669e-08	1.0113e-08	2.9037e-08	9.4567e-08	2.1848e-08	-4.323e-08	-1.1058e-07	-2.3493e-08	2.249e-09	-1.8993e-08	7.8535e-08	6.1995e-08	1.0432e-07	7.808e-10	-6.2223e-08	4.2983e-08	1.765e-08	-1.5753e-07	-8.2789e-08	7.2583e-08	7.0381e-08	-1.1809e-07	-1.7216e-07	8.1081e-10	-1.7893e-08	7.7687e-08	2.7865e-08	-8.2513e-09	-7.2048e-08	-8.5505e-08	7.4154e-08	-4.082e-08	-1.475e-08	-2.5475e-08	-5.2427e-08	-3.3894e-08
-2.8198e-08	-9.1773e-08	-6.4066e-08	-8.4397e-08	-1.24e-08	-3.4539e-08	-3.995e-08	1.0993e-08	2.2581e-08	8.8298e-08	2.2604e-08	-3.818e-08	-1.0781e-07	-2.4039e-08	3.707e-09	-2.0386e-08	7.7495e-08	6.3688e-08	1.0352e-07	2.2231e-09	-6.3441e-08	4.2888e-08	1.2791e-08	-1.573e-07	-8.1643e-08	7.0278e-08	6.5397e-08	-1.2003e-07	-1.6356e-07	6.9416e-10	-1.7302e-08	7.738e-08	2.8249e-08	-7.3528e-09	-7.0532e-08	-8.375e-08	7.0231e-08	-3.8971e-08	-1.4177e-08	-3.2672e-08	-5.0908e-08	-3.1961e-08
-2.779e-08	-9.1761e-08	-6.2518e-08	-8.0482e-08	-1.1254e-08	-3.4658e-08	-3.7028e-08	1.1766e-08	1.5999e-08	8.3634e-08	2.3436e-08	-3.3041e-08	-1.051e-07	-2.4597e-08	4.6088e-09	-2.1874e-08	7.6146e-08	6.5405e-08	1.027e-07	3.7973e-09	-6.4604e-08	4.2863e-08	7.9365e-09	-1.5681e-07	-8.0451e-08	6.798e-08	6.072e-08	-1.2196e-07	-1.5563e-07	7.2673e-10	-1.659e-08	7.711e-08	2.8539e-08	-6.4399e-09	-6.8876e-08	-8.2047e-08	6.6946e-08	-3.7014e-08	-1.3741e-08	-3.9753e-08	-4.9417e-08	-3.0162e-08
-2.7292e-08	-9.1535e-08	-6.0861e-08	-7.65e-08	-9.9263e-09	-3.4713e-08	-3.3917e-08	1.2435e-08	9.4318e-09	8.0642e-08	2.4351e-08	-2.7829e-08	-1.0249e-07	-2.5134e-08	4.9702e-09	-2.3433e-08	7.4512e-08	6.7116e-08	1.0185e-07	5.5086e-09	-6.5694e-08	4.2928e-08	3.1653e-09	-1.5604e-07	-7.9217e-08	6.5717e-08	5.6376e-08	-1.2385e-07	-1.4835e-07	9.5634e-10	-1.5738e-08	7.6881e-08	2.8744e-08	-5.5078e-09	-6.7096e-08	-8.0394e-08	6.4293e-08	-3.4951e-08	-1.3444e-08	-4.6635e-08	-4.7933e-08	-2.8498e-08
-2.6709e-08	-9.1088e-08	-5.9112e-08	-7.247e-08	-8.4303e-09	-3.4716e-08	-3.0638e-08	1.3003e-08	3.0298e-09	7.9367e-08	2.5347e-08	-2.2555e-08	-1.0003e-07	-2.5622e-08	4.8162e-09	-2.5038e-08	7.2619e-08	6.8792e-08	1.0094e-07	7.3601e-09	-6.6691e-08	4.3102e-08	-1.4441e-09	-1.5496e-07	-7.794e-08	6.3517e-08	5.2391e-08	-1.2567e-07	-1.417e-07	1.4295e-09	-1.4732e-08	7.6691e-08	2.8876e-08	-4.5511e-09	-6.5205e-08	-7.8789e-08	6.2257e-08	-3.2784e-08	-1.3282e-08	-5.3235e-08	-4.6435e-08	-2.6969e-08
-2.6048e-08	-9.0414e-08	-5.729e-08	-6.8411e-08	-6.779e-09	-3.4676e-08	-2.7212e-08	1.3481e-08	-3.0532e-09	7.9828e-08	2.6424e-08	-1.7231e-08	-9.7732e-08	-2.6029e-08	4.1802e-09	-2.666e-08	7.0491e-08	7.0401e-08	9.995e-08	9.3529e-09	-6.7576e-08	4.3399e-08	-5.8173e-09	-1.5357e-07	-7.662e-08	6.1411e-08	4.878e-08	-1.274e-07	-1.3565e-07	2.1901e-09	-1.356e-08	7.6541e-08	2.8945e-08	-3.5643e-09	-6.3218e-08	-7.7226e-08	6.0811e-08	-3.052e-08	-1.3252e-08	-5.9475e-08	-4.4903e-08	-2.5573e-08
-2.5313e-08	-8.9506e-08	-5.5411e-08	-6.4341e-08	-4.9838e-09	-3.4602e-08	-2.3665e-08	1.3879e-08	-8.6622e-09	8.2018e-08	2.7577e-08	-1.187e-08	-9.5639e-08	-2.6326e-08	3.1032e-09	-2.827e-08	6.815e-08	7.191e-08	9.8858e-08	1.1486e-08	-6.8327e-08	4.3832e-08	-9.8846e-09	-1.5186e-07	-7.5254e-08	5.9432e-08	4.5554e-08	-1.2901e-07	-1.3014e-07	3.2777e-09	-1.2211e-08	7.6428e-08	2.8963e-08	-2.5421e-09	-6.1147e-08	-7.5695e-08	5.9922e-08	-2.8163e-08	-1.3346e-08	-6.5281e-08	-4.3314e-08	-2.4305e-08
-2.4513e-08	-8.8362e-08	-5.3489e-08	-6.0274e-08	-3.0552e-09	-3.45e-08	-2.0024e-08	1.4211e-08	-1.3646e-08	8.5902e-08	2.8801e-08	-6.4784e-09	-9.377e-08	-2.6486e-08	1.6329e-09	-2.9841e-08	6.5619e-08	7.329e-08	9.7638e-08	1.3755e-08	-6.8924e-08	4.441e-08	-1.3583e-08	-1.4982e-07	-7.3838e-08	5.761e-08	4.2719e-08	-1.3046e-07	-1.2512e-07	4.7267e-09	-1.0679e-08	7.6349e-08	2.8944e-08	-1.4789e-09	-5.9006e-08	-7.4186e-08	5.9548e-08	-2.5724e-08	-1.3554e-08	-7.0585e-08	-4.1648e-08	-2.316e-08
-2.3655e-08	-8.6978e-08	-5.154e-08	-5.6226e-08	-1.0031e-09	-3.4379e-08	-1.6319e-08	1.4494e-08	-1.7861e-08	9.1425e-08	3.0088e-08	-1.0646e-09	-9.2148e-08	-2.6486e-08	-1.7735e-10	-3.1342e-08	6.2915e-08	7.4511e-08	9.6264e-08	1.6156e-08	-6.9348e-08	4.5138e-08	-1.6856e-08	-1.4744e-07	-7.2365e-08	5.5974e-08	4.0271e-08	-1.3172e-07	-1.2054e-07	6.5647e-09	-8.9626e-09	7.63e-08	2.89e-08	-3.6989e-10	-5.6805e-08	-7.2685e-08	5.9647e-08	-2.321e-08	-1.3864e-08	-7.5332e-08	-3.9885e-08	-2.2132e-08
-2.2749e-08	-8.5354e-08	-4.9573e-08	-5.2208e-08	1.163e-09	-3.424e-08	-1.2579e-08	1.4743e-08	-2.1175e-08	9.8506e-08	3.1429e-08	4.3659e-09	-9.0792e-08	-2.6303e-08	-2.2698e-09	-3.2746e-08	6.0058e-08	7.5547e-08	9.471e-08	1.8679e-08	-6.9579e-08	4.6019e-08	-1.9655e-08	-1.4472e-07	-7.0829e-08	5.4555e-08	3.82e-08	-1.3276e-07	-1.1633e-07	8.8117e-09	-7.0632e-09	7.6276e-08	2.8845e-08	7.8956e-10	-5.4556e-08	-7.1178e-08	6.0172e-08	-2.0634e-08	-1.4258e-08	-7.9474e-08	-3.8004e-08	-2.1214e-08
-2.1802e-08	-8.3491e-08	-4.7601e-08	-4.8229e-08	3.433e-09	-3.4089e-08	-8.8338e-09	1.4977e-08	-2.3473e-08	1.0704e-07	3.2811e-08	9.8081e-09	-8.9717e-08	-2.5922e-08	-4.5839e-09	-3.4025e-08	5.7062e-08	7.6373e-08	9.2955e-08	2.1313e-08	-6.9601e-08	4.705e-08	-2.1942e-08	-1.4166e-07	-6.9222e-08	5.3377e-08	3.649e-08	-1.3355e-07	-1.1244e-07	1.1479e-08	-4.9864e-09	7.6267e-08	2.8793e-08	2.0034e-09	-5.2269e-08	-6.965e-08	6.1079e-08	-1.8006e-08	-1.4718e-08	-8.2974e-08	-3.5988e-08	-2.0398e-08
-2.0826e-08	-8.1392e-08	-4.5631e-08	-4.4297e-08	5.7961e-09	-3.3924e-08	-5.1124e-09	1.5213e-08	-2.4658e-08	1.1691e-07	3.4221e-08	1.5257e-08	-8.8935e-08	-2.5328e-08	-7.0569e-09	-3.5155e-08	5.3945e-08	7.6967e-08	9.0977e-08	2.4045e-08	-6.9401e-08	4.8228e-08	-2.3682e-08	-1.3828e-07	-6.7536e-08	5.2463e-08	3.5119e-08	-1.3406e-07	-1.088e-07	1.4568e-08	-2.7426e-09	7.6266e-08	2.8758e-08	3.2749e-09	-4.9954e-08	-6.8083e-08	6.2324e-08	-1.5337e-08	-1.5225e-08	-8.5805e-08	-3.3818e-08	-1.9675e-08
-1.9828e-08	-7.9062e-08	-4.3673e-08	-4.0415e-08	8.2396e-09	-3.3747e-08	-1.443e-09	1.5466e-08	-2.4653e-08	1.2798e-07	3.5642e-08	2.0704e-08	-8.8455e-08	-2.4513e-08	-9.6257e-09	-3.6116e-08	5.0719e-08	7.7311e-08	8.8761e-08	2.686e-08	-6.8967e-08	4.9545e-08	-2.4851e-08	-1.3458e-07	-6.5762e-08	5.1832e-08	3.406e-08	-1.3426e-07	-1.0538e-07	1.8072e-08	-3.4603e-10	7.6265e-08	2.8754e-08	4.6066e-09	-4.7617e-08	-6.6459e-08	6.3867e-08	-1.2634e-08	-1.5757e-08	-8.7953e-08	-3.148e-08	-1.9035e-08
-1.8819e-08	-7.6507e-08	-4.1734e-08	-3.6587e-08	1.0748e-08	-3.3554e-08	2.1477e-09	1.5752e-08	-2.3407e-08	1.4009e-07	3.7055e-08	2.6142e-08	-8.8279e-08	-2.3473e-08	-1.2228e-08	-3.6888e-08	4.7399e-08	7.739e-08	8.6294e-08	2.974e-08	-6.8295e-08	5.0993e-08	-2.543e-08	-1.3057e-07	-6.3894e-08	5.1498e-08	3.3282e-08	-1.3413e-07	-1.0211e-07	2.1971e-08	2.1849e-09	7.6252e-08	2.8796e-08	5.9999e-09	-4.5267e-08	-6.476e-08	6.5669e-08	-9.9081e-09	-1.6293e-08	-8.9413e-08	-2.8958e-08	-1.847e-08
-1.7807e-08	-7.3737e-08	-3.9817e-08	-3.2812e-08	1.3304e-08	-3.3343e-08	5.6345e-09	1.6083e-08	-2.0895e-08	1.5309e-07	3.844e-08	3.1555e-08	-8.8404e-08	-2.2211e-08	-1.4803e-08	-3.7457e-08	4.3997e-08	7.7194e-08	8.3567e-08	3.2663e-08	-6.7382e-08	5.2559e-08	-2.5403e-08	-1.263e-07	-6.1925e-08	5.1469e-08	3.2752e-08	-1.3365e-07	-9.8948e-08	2.6241e-08	4.8282e-09	7.6217e-08	2.8896e-08	7.4553e-09	-4.291e-08	-6.297e-08	6.7697e-08	-7.1653e-09	-1.6812e-08	-9.019e-08	-2.6241e-08	-1.7968e-08
-1.6798e-08	-7.0761e-08	-3.7927e-08	-2.9092e-08	1.5886e-08	-3.3108e-08	8.994e-09	1.647e-08	-1.7118e-08	1.668e-07	3.9777e-08	3.6927e-08	-8.8818e-08	-2.0731e-08	-1.7294e-08	-3.7815e-08	4.0526e-08	7.6716e-08	8.0579e-08	3.5608e-08	-6.6232e-08	5.4229e-08	-2.4762e-08	-1.2176e-07	-5.9849e-08	5.1746e-08	3.2435e-08	-1.3281e-07	-9.585e-08	3.0844e-08	7.5591e-09	7.6147e-08	2.9067e-08	8.9722e-09	-4.0553e-08	-6.107e-08	6.992e-08	-4.4137e-09	-1.7297e-08	-9.0298e-08	-2.332e-08	-1.7521e-08
-1.58e-08	-6.7592e-08	-3.6064e-08	-2.5424e-08	1.8466e-08	-3.2845e-08	1.2205e-08	1.692e-08	-1.2105e-08	1.8103e-07	4.1043e-08	4.2235e-08	-8.9506e-08	-1.9044e-08	-1.965e-08	-3.7957e-08	3.6997e-08	7.5954e-08	7.7331e-08	3.8552e-08	-6.4855e-08	5.5987e-08	-2.3504e-08	-1.1701e-07	-5.7665e-08	5.2327e-08	3.2296e-08	-1.3161e-07	-9.2772e-08	3.5736e-08	1.035e-08	7.6025e-08	2.932e-08	1.0549e-08	-3.8201e-08	-5.9045e-08	7.2312e-08	-1.6609e-09	-1.7733e-08	-8.9763e-08	-2.0189e-08	-1.7117e-08
-1.4817e-08	-6.4245e-08	-3.4227e-08	-2.1808e-08	2.1015e-08	-3.2546e-08	1.5249e-08	1.744e-08	-5.9107e-09	1.9561e-07	4.2217e-08	4.7453e-08	-9.0441e-08	-1.7167e-08	-2.1825e-08	-3.7882e-08	3.3423e-08	7.4907e-08	7.3833e-08	4.1469e-08	-6.3263e-08	5.7818e-08	-2.1632e-08	-1.1207e-07	-5.537e-08	5.3203e-08	3.2298e-08	-1.3004e-07	-8.9671e-08	4.0867e-08	1.3172e-08	7.5835e-08	2.9664e-08	1.2181e-08	-3.5862e-08	-5.6881e-08	7.4847e-08	1.085e-09	-1.8106e-08	-8.8617e-08	-1.6845e-08	-1.6745e-08
-1.3854e-08	-6.0736e-08	-3.2414e-08	-1.8243e-08	2.3498e-08	-3.2206e-08	1.8109e-08	1.8031e-08	1.3857e-09	2.1033e-07	4.3277e-08	5.255e-08	-9.1593e-08	-1.5117e-08	-2.3781e-08	-3.7594e-08	2.9816e-08	7.3584e-08	7.0098e-08	4.4335e-08	-6.1474e-08	5.9702e-08	-1.9153e-08	-1.0698e-07	-5.2966e-08	5.4363e-08	3.2408e-08	-1.281e-07	-8.6508e-08	4.6179e-08	1.5995e-08	7.5557e-08	3.0105e-08	1.3865e-08	-3.3539e-08	-5.4568e-08	7.7505e-08	3.8156e-09	-1.8405e-08	-8.6902e-08	-1.3291e-08	-1.6394e-08
-1.2912e-08	-5.7082e-08	-3.062e-08	-1.4729e-08	2.5878e-08	-3.1819e-08	2.0771e-08	1.8693e-08	9.6851e-09	2.25e-07	4.4202e-08	5.7495e-08	-9.2923e-08	-1.2918e-08	-2.5486e-08	-3.7101e-08	2.6191e-08	7.1992e-08	6.6147e-08	4.7124e-08	-5.9512e-08	6.1623e-08	-1.6084e-08	-1.0177e-07	-5.0456e-08	5.5789e-08	3.2591e-08	-1.2581e-07	-8.3246e-08	5.161e-08	1.8786e-08	7.5173e-08	3.065e-08	1.5595e-08	-3.1241e-08	-5.2097e-08	8.0267e-08	6.5216e-09	-1.8623e-08	-8.4665e-08	-9.5323e-09	-1.6051e-08
-1.1994e-08	-5.3305e-08	-2.884e-08	-1.1266e-08	2.8116e-08	-3.1379e-08	2.3224e-08	1.9423e-08	1.8871e-08	2.394e-07	4.4972e-08	6.2251e-08	-9.4387e-08	-1.0594e-08	-2.6916e-08	-3.6417e-08	2.2566e-08	7.0146e-08	6.2004e-08	4.9812e-08	-5.7404e-08	6.3561e-08	-1.2445e-08	-9.65e-08	-4.7845e-08	5.7462e-08	3.2816e-08	-1.2319e-07	-7.9851e-08	5.7093e-08	2.1515e-08	7.466e-08	3.1301e-08	1.7362e-08	-2.8971e-08	-4.9466e-08	8.3119e-08	9.1937e-09	-1.8754e-08	-8.1961e-08	-5.5808e-09	-1.5704e-08
-1.1098e-08	-4.9424e-08	-2.7067e-08	-7.8588e-09	3.017e-08	-3.0884e-08	2.5459e-08	2.0216e-08	2.8812e-08	2.5333e-07	4.5568e-08	6.6784e-08	-9.5934e-08	-8.1736e-09	-2.8055e-08	-3.5558e-08	1.8956e-08	6.8062e-08	5.7699e-08	5.2374e-08	-5.5181e-08	6.5499e-08	-8.2636e-09	-9.1199e-08	-4.5144e-08	5.9357e-08	3.3057e-08	-1.2026e-07	-7.63e-08	6.2562e-08	2.4151e-08	7.3999e-08	3.2057e-08	1.9159e-08	-2.6737e-08	-4.6673e-08	8.6046e-08	1.1822e-08	-1.8792e-08	-7.8853e-08	-1.452e-09	-1.5336e-08
-1.0224e-08	-4.5462e-08	-2.5295e-08	-4.5116e-09	3.2004e-08	-3.0328e-08	2.7472e-08	2.1062e-08	3.9368e-08	2.666e-07	4.5973e-08	7.1058e-08	-9.7509e-08	-5.6837e-09	-2.8891e-08	-3.4544e-08	1.5379e-08	6.576e-08	5.3266e-08	5.479e-08	-5.2877e-08	6.7418e-08	-3.5728e-09	-8.5913e-08	-4.2361e-08	6.1445e-08	3.3288e-08	-1.1705e-07	-7.2572e-08	6.7945e-08	2.6663e-08	7.3168e-08	3.2916e-08	2.0973e-08	-2.4542e-08	-4.3722e-08	8.9036e-08	1.4397e-08	-1.8736e-08	-7.5404e-08	2.834e-09	-1.4933e-08
-9.367e-09	-4.1443e-08	-2.3518e-08	-1.232e-09	3.358e-08	-2.9711e-08	2.926e-08	2.1953e-08	5.039e-08	2.7902e-07	4.6172e-08	7.5038e-08	-9.9051e-08	-3.1528e-09	-2.9419e-08	-3.3399e-08	1.1853e-08	6.3263e-08	4.8742e-08	5.7039e-08	-5.0528e-08	6.9302e-08	1.5879e-09	-8.0686e-08	-3.9512e-08	6.3695e-08	3.3492e-08	-1.1359e-07	-6.866e-08	7.3173e-08	2.9023e-08	7.2145e-08	3.3872e-08	2.2795e-08	-2.2392e-08	-4.0619e-08	9.2079e-08	1.6908e-08	-1.8584e-08	-7.1686e-08	7.2531e-09	-1.4477e-08
-8.5237e-09	-3.739e-08	-2.1728e-08	1.9702e-09	3.4865e-08	-2.9031e-08	3.0826e-08	2.2878e-08	6.1727e-08	2.9042e-07	4.6151e-08	7.8692e-08	-1.005e-07	-6.0908e-10	-2.9639e-08	-3.2146e-08	8.3956e-09	6.0593e-08	4.4167e-08	5.9105e-08	-4.8172e-08	7.1131e-08	7.1742e-09	-7.5557e-08	-3.6612e-08	6.607e-08	3.3653e-08	-1.0994e-07	-6.4563e-08	7.8178e-08	3.1205e-08	7.091e-08	3.4917e-08	2.4611e-08	-2.0291e-08	-3.7374e-08	9.5168e-08	1.9347e-08	-1.8336e-08	-6.7773e-08	1.1777e-08	-1.395e-08
-7.6883e-09	-3.3329e-08	-1.9922e-08	5.0827e-09	3.5832e-08	-2.8289e-08	3.2173e-08	2.3825e-08	7.3227e-08	3.0064e-07	4.5901e-08	8.1988e-08	-1.0178e-07	1.92e-09	-2.9553e-08	-3.0813e-08	5.0264e-09	5.7775e-08	3.9582e-08	6.0973e-08	-4.5845e-08	7.2891e-08	1.3137e-08	-7.0567e-08	-3.3679e-08	6.8531e-08	3.3764e-08	-1.0612e-07	-6.029e-08	8.2893e-08	3.3185e-08	6.9441e-08	3.6042e-08	2.6408e-08	-1.8244e-08	-3.4e-08	9.8295e-08	2.1702e-08	-1.7993e-08	-6.3739e-08	1.6374e-08	-1.3331e-08
-6.8537e-09	-2.9282e-08	-1.8095e-08	8.0909e-09	3.6459e-08	-2.7487e-08	3.3308e-08	2.4782e-08	8.4742e-08	3.0956e-07	4.5416e-08	8.49e-08	-1.0285e-07	4.4082e-09	-2.9166e-08	-2.9427e-08	1.764e-09	5.4835e-08	3.5028e-08	6.2634e-08	-4.3586e-08	7.4567e-08	1.9423e-08	-6.5751e-08	-3.0733e-08	7.1041e-08	3.3823e-08	-1.0219e-07	-5.5857e-08	8.7254e-08	3.4939e-08	6.7716e-08	3.7233e-08	2.8174e-08	-1.6252e-08	-3.0511e-08	1.0145e-07	2.3964e-08	-1.756e-08	-5.9662e-08	2.1008e-08	-1.2603e-08
-6.0119e-09	-2.5276e-08	-1.6244e-08	1.0978e-08	3.6731e-08	-2.6629e-08	3.424e-08	2.574e-08	9.6124e-08	3.1707e-07	4.4694e-08	8.7407e-08	-1.0362e-07	6.8307e-09	-2.8483e-08	-2.8016e-08	-1.3726e-09	5.1797e-08	3.0546e-08	6.4078e-08	-4.1429e-08	7.6144e-08	2.5974e-08	-6.1142e-08	-2.7799e-08	7.3559e-08	3.383e-08	-9.8202e-08	-5.1285e-08	9.1203e-08	3.6448e-08	6.5714e-08	3.8478e-08	2.9894e-08	-1.4321e-08	-2.6925e-08	1.0464e-07	2.6121e-08	-1.7041e-08	-5.5616e-08	2.5641e-08	-1.1743e-08
-5.1541e-09	-2.1332e-08	-1.4366e-08	1.3725e-08	3.664e-08	-2.5721e-08	3.4983e-08	2.6686e-08	1.0723e-07	3.2308e-07	4.3736e-08	8.949e-08	-1.0406e-07	9.1648e-09	-2.7512e-08	-2.6605e-08	-4.3656e-09	4.8685e-08	2.6178e-08	6.5304e-08	-3.941e-08	7.761e-08	3.2731e-08	-5.6767e-08	-2.4898e-08	7.6049e-08	3.3796e-08	-9.4195e-08	-4.6603e-08	9.4684e-08	3.7694e-08	6.3414e-08	3.9761e-08	3.1555e-08	-1.245e-08	-2.3261e-08	1.0784e-07	2.8161e-08	-1.6441e-08	-5.1672e-08	3.0232e-08	-1.0734e-08
-4.2706e-09	-1.7475e-08	-1.2461e-08	1.6313e-08	3.6186e-08	-2.477e-08	3.5549e-08	2.7613e-08	1.1794e-07	3.2756e-07	4.255e-08	9.1141e-08	-1.041e-07	1.139e-08	-2.6258e-08	-2.5222e-08	-7.1987e-09	4.5523e-08	2.196e-08	6.631e-08	-3.7559e-08	7.8956e-08	3.9629e-08	-5.265e-08	-2.2055e-08	7.8478e-08	3.3731e-08	-9.0219e-08	-4.1845e-08	9.7647e-08	3.866e-08	6.0796e-08	4.1067e-08	3.3143e-08	-1.0643e-08	-1.9538e-08	1.1103e-07	3.0072e-08	-1.5766e-08	-4.7895e-08	3.474e-08	-9.5571e-09
-3.3514e-09	-1.3724e-08	-1.0528e-08	1.8722e-08	3.5378e-08	-2.3788e-08	3.5954e-08	2.8511e-08	1.2811e-07	3.3048e-07	4.115e-08	9.2355e-08	-1.037e-07	1.3487e-08	-2.4728e-08	-2.3888e-08	-9.8579e-09	4.2333e-08	1.7926e-08	6.7098e-08	-3.5902e-08	8.0171e-08	4.6602e-08	-4.8809e-08	-1.9297e-08	8.0812e-08	3.3653e-08	-8.6321e-08	-3.705e-08	1.0005e-07	3.9337e-08	5.7842e-08	4.2379e-08	3.4647e-08	-8.8988e-09	-1.5777e-08	1.1421e-07	3.1841e-08	-1.5024e-08	-4.4344e-08	3.9122e-08	-8.1969e-09
-2.3861e-09	-1.0101e-08	-8.5677e-09	2.0933e-08	3.4231e-08	-2.2785e-08	3.6217e-08	2.9375e-08	1.3764e-07	3.3182e-07	3.9554e-08	9.3136e-08	-1.0282e-07	1.5441e-08	-2.2929e-08	-2.2625e-08	-1.2331e-08	3.9134e-08	1.411e-08	6.7674e-08	-3.4463e-08	8.1249e-08	5.3579e-08	-4.526e-08	-1.6646e-08	8.3025e-08	3.3583e-08	-8.2545e-08	-3.2257e-08	1.0186e-07	3.9713e-08	5.4536e-08	4.3682e-08	3.6054e-08	-7.2174e-09	-1.1998e-08	1.1735e-07	3.3456e-08	-1.4222e-08	-4.1068e-08	4.3339e-08	-6.6405e-09
-1.3644e-09	-6.6247e-09	-6.5814e-09	2.2929e-08	3.2766e-08	-2.1774e-08	3.6356e-08	3.0199e-08	1.4642e-07	3.3162e-07	3.7786e-08	9.3493e-08	-1.0141e-07	1.7236e-08	-2.087e-08	-2.1452e-08	-1.4609e-08	3.5945e-08	1.0537e-08	6.8044e-08	-3.326e-08	8.2181e-08	6.0487e-08	-4.2009e-08	-1.4125e-08	8.5092e-08	3.3544e-08	-7.893e-08	-2.7512e-08	1.0304e-07	3.9787e-08	5.0865e-08	4.4957e-08	3.7356e-08	-5.5973e-09	-8.2236e-09	1.2042e-07	3.4904e-08	-1.337e-08	-3.8103e-08	4.7353e-08	-4.8784e-09
-2.7606e-10	-3.3113e-09	-4.5702e-09	2.4693e-08	3.1009e-08	-2.0767e-08	3.639e-08	3.0977e-08	1.5436e-07	3.2993e-07	3.5873e-08	9.3444e-08	-9.9432e-08	1.8861e-08	-1.856e-08	-2.0385e-08	-1.6685e-08	3.2783e-08	7.2309e-09	6.8219e-08	-3.2306e-08	8.2962e-08	6.7252e-08	-3.9059e-08	-1.1754e-08	8.6993e-08	3.356e-08	-7.5511e-08	-2.2859e-08	1.0357e-07	3.9555e-08	4.6819e-08	4.6191e-08	3.8543e-08	-4.0362e-09	-4.4729e-09	1.2338e-07	3.6174e-08	-1.2476e-08	-3.5479e-08	5.1128e-08	-2.9049e-09
8.8861e-10	-1.7668e-10	-2.5356e-09	2.6214e-08	2.8987e-08	-1.9779e-08	3.6337e-08	3.1707e-08	1.6138e-07	3.2679e-07	3.3848e-08	9.3016e-08	-9.6869e-08	2.0303e-08	-1.601e-08	-1.9437e-08	-1.8556e-08	2.9663e-08	4.2101e-09	6.821e-08	-3.1606e-08	8.3586e-08	7.3797e-08	-3.6407e-08	-9.5524e-09	8.871e-08	3.3655e-08	-7.2317e-08	-1.8343e-08	1.0344e-07	3.9022e-08	4.2392e-08	4.7366e-08	3.9608e-08	-2.5309e-09	-7.6597e-10	1.2619e-07	3.7255e-08	-1.1551e-08	-3.321e-08	5.4634e-08	-7.1898e-10
2.1385e-09	2.7652e-09	-4.789e-10	2.7483e-08	2.673e-08	-1.8823e-08	3.6216e-08	3.2384e-08	1.6743e-07	3.223e-07	3.1743e-08	9.2243e-08	-9.3693e-08	2.1554e-08	-1.3234e-08	-1.8621e-08	-2.0218e-08	2.6597e-08	1.4885e-09	6.8032e-08	-3.1165e-08	8.4047e-08	8.0044e-08	-3.4044e-08	-7.5324e-09	9.0233e-08	3.3852e-08	-6.9372e-08	-1.4006e-08	1.0265e-07	3.8196e-08	3.7582e-08	4.8471e-08	4.0546e-08	-1.0779e-09	2.8783e-09	1.2882e-07	3.8136e-08	-1.0606e-08	-3.1302e-08	5.7844e-08	1.676e-09
3.4811e-09	5.5022e-09	1.5986e-09	2.8494e-08	2.4267e-08	-1.7912e-08	3.6041e-08	3.3004e-08	1.7246e-07	3.1654e-07	2.9595e-08	9.1162e-08	-8.9887e-08	2.2607e-08	-1.0244e-08	-1.7945e-08	-2.1673e-08	2.3598e-08	-9.2443e-10	6.7701e-08	-3.0979e-08	8.434e-08	8.5917e-08	-3.1956e-08	-5.7041e-09	9.1551e-08	3.417e-08	-6.6694e-08	-9.8861e-09	1.0118e-07	3.7089e-08	3.2392e-08	4.9491e-08	4.1352e-08	3.2689e-10	6.4422e-09	1.3121e-07	3.8807e-08	-9.653e-09	-2.9751e-08	6.0737e-08	4.2717e-09
4.9224e-09	8.0236e-09	3.6953e-09	2.9246e-08	2.1625e-08	-1.7061e-08	3.5826e-08	3.3564e-08	1.7644e-07	3.0962e-07	2.7438e-08	8.982e-08	-8.5444e-08	2.3457e-08	-7.0544e-09	-1.7415e-08	-2.2922e-08	2.0678e-08	-3.0242e-09	6.7233e-08	-3.1042e-08	8.4458e-08	9.134e-08	-3.0124e-08	-4.0726e-09	9.2662e-08	3.4627e-08	-6.4296e-08	-6.0139e-09	9.9068e-08	3.5721e-08	2.6826e-08	5.0416e-08	4.2023e-08	1.6879e-09	9.9094e-09	1.3333e-07	3.926e-08	-8.704e-09	-2.8543e-08	6.3297e-08	7.0548e-09
6.4661e-09	1.0321e-08	5.8089e-09	2.9743e-08	1.883e-08	-1.6282e-08	3.5582e-08	3.4059e-08	1.7938e-07	3.0167e-07	2.5309e-08	8.8265e-08	-8.0363e-08	2.4103e-08	-3.6789e-09	-1.7035e-08	-2.3969e-08	1.7846e-08	-4.811e-09	6.6646e-08	-3.1343e-08	8.4398e-08	9.6244e-08	-2.8523e-08	-2.6387e-09	9.3564e-08	3.5236e-08	-6.2181e-08	-2.412e-09	9.6313e-08	3.4115e-08	2.0894e-08	5.1238e-08	4.256e-08	3.0094e-09	1.3265e-08	1.3511e-07	3.9485e-08	-7.7704e-09	-2.7661e-08	6.5513e-08	1.0008e-08
8.1135e-09	1.2386e-08	7.9361e-09	2.9991e-08	1.5902e-08	-1.5588e-08	3.5314e-08	3.4485e-08	1.8126e-07	2.9281e-07	2.3243e-08	8.655e-08	-7.4654e-08	2.4544e-08	-1.3103e-10	-1.6805e-08	-2.4818e-08	1.5113e-08	-6.2895e-09	6.596e-08	-3.1868e-08	8.4152e-08	1.0056e-07	-2.7125e-08	-1.3985e-09	9.4259e-08	3.6006e-08	-6.035e-08	9.06e-10	9.2945e-08	3.2298e-08	1.4609e-08	5.1949e-08	4.2961e-08	4.2956e-09	1.6497e-08	1.3651e-07	3.9476e-08	-6.8623e-09	-2.708e-08	6.7381e-08	1.3108e-08
9.8634e-09	1.4216e-08	1.0072e-08	3e-08	1.2864e-08	-1.4988e-08	3.5029e-08	3.4837e-08	1.8213e-07	2.8316e-07	2.1273e-08	8.4727e-08	-6.8337e-08	2.4786e-08	3.5753e-09	-1.6723e-08	-2.5476e-08	1.2488e-08	-7.469e-09	6.5192e-08	-3.2596e-08	8.3717e-08	1.0423e-07	-2.5899e-08	-3.438e-10	9.4751e-08	3.6943e-08	-5.8797e-08	3.9358e-09	8.8994e-08	3.0303e-08	7.9898e-09	5.2545e-08	4.3231e-08	5.5502e-09	1.9592e-08	1.3747e-07	3.923e-08	-5.9886e-09	-2.6776e-08	6.8896e-08	1.633e-08
1.1712e-08	1.5806e-08	1.221e-08	2.9786e-08	9.7318e-09	-1.4494e-08	3.4726e-08	3.5108e-08	1.8203e-07	2.7287e-07	1.9431e-08	8.285e-08	-6.1442e-08	2.4837e-08	7.4262e-09	-1.6783e-08	-2.5951e-08	9.9795e-09	-8.3634e-09	6.4361e-08	-3.3505e-08	8.3087e-08	1.0719e-07	-2.4809e-08	5.3711e-10	9.5046e-08	3.8048e-08	-5.751e-08	6.6811e-09	8.45e-08	2.8168e-08	1.0599e-09	5.3023e-08	4.3371e-08	6.7758e-09	2.2542e-08	1.3796e-07	3.8747e-08	-5.1555e-09	-2.6722e-08	7.0061e-08	1.9644e-08
1.3652e-08	1.7156e-08	1.4342e-08	2.9364e-08	6.5212e-09	-1.4112e-08	3.4403e-08	3.5292e-08	1.8101e-07	2.6207e-07	1.7748e-08	8.0969e-08	-5.4007e-08	2.4709e-08	1.1406e-08	-1.6976e-08	-2.6252e-08	7.5964e-09	-8.9904e-09	6.3484e-08	-3.4568e-08	8.2258e-08	1.094e-07	-2.3818e-08	1.2593e-09	9.515e-08	3.9318e-08	-5.6471e-08	9.1537e-09	7.9506e-08	2.5933e-08	-6.1511e-09	5.3383e-08	4.3387e-08	7.9741e-09	2.5339e-08	1.3794e-07	3.803e-08	-4.3672e-09	-2.6895e-08	7.0878e-08	2.3018e-08
1.5676e-08	1.8266e-08	1.6458e-08	2.8755e-08	3.2467e-09	-1.3851e-08	3.4055e-08	3.5385e-08	1.7917e-07	2.5089e-07	1.6249e-08	7.9131e-08	-4.6079e-08	2.4416e-08	1.55e-08	-1.7288e-08	-2.6392e-08	5.3456e-09	-9.3718e-09	6.2576e-08	-3.5755e-08	8.1226e-08	1.1081e-07	-2.2889e-08	1.8404e-09	9.5073e-08	4.0746e-08	-5.5658e-08	1.1373e-08	7.4062e-08	2.3642e-08	-1.3607e-08	5.3628e-08	4.3285e-08	9.1455e-09	2.7975e-08	1.3737e-07	3.7087e-08	-3.6247e-09	-2.7274e-08	7.1354e-08	2.642e-08
1.7772e-08	1.9141e-08	1.8549e-08	2.7981e-08	-7.772e-11	-1.3715e-08	3.3672e-08	3.538e-08	1.7658e-07	2.3947e-07	1.4957e-08	7.7382e-08	-3.7709e-08	2.3978e-08	1.969e-08	-1.7702e-08	-2.6382e-08	3.2333e-09	-9.5327e-09	6.1652e-08	-3.7031e-08	7.9988e-08	1.114e-07	-2.1982e-08	2.3001e-09	9.4823e-08	4.2319e-08	-5.5044e-08	1.3364e-08	6.8221e-08	2.1341e-08	-2.1265e-08	5.3762e-08	4.3072e-08	1.0289e-08	3.0447e-08	1.3622e-07	3.5928e-08	-2.9267e-09	-2.7839e-08	7.1497e-08	2.9816e-08
1.9926e-08	1.9786e-08	2.0604e-08	2.7065e-08	-3.4384e-09	-1.3707e-08	3.3241e-08	3.5272e-08	1.7336e-07	2.2791e-07	1.3891e-08	7.5757e-08	-2.8955e-08	2.3415e-08	2.3957e-08	-1.8197e-08	-2.6237e-08	1.2642e-09	-9.5013e-09	6.0724e-08	-3.836e-08	7.8543e-08	1.1115e-07	-2.1059e-08	2.6592e-09	9.4415e-08	4.402e-08	-5.4599e-08	1.5158e-08	6.2043e-08	1.908e-08	-2.9076e-08	5.379e-08	4.2755e-08	1.1404e-08	3.2752e-08	1.345e-07	3.4569e-08	-2.2684e-09	-2.8575e-08	7.1317e-08	3.3174e-08
2.2122e-08	2.0209e-08	2.2611e-08	2.6032e-08	-6.8215e-09	-1.3828e-08	3.2749e-08	3.5056e-08	1.6963e-07	2.1635e-07	1.3065e-08	7.4291e-08	-1.988e-08	2.275e-08	2.8284e-08	-1.8747e-08	-2.5968e-08	-5.5802e-10	-9.3079e-09	5.9803e-08	-3.9705e-08	7.689e-08	1.1003e-07	-2.0083e-08	2.9395e-09	9.3859e-08	4.5827e-08	-5.4288e-08	1.679e-08	5.5588e-08	1.6907e-08	-3.6985e-08	5.3721e-08	4.2343e-08	1.2487e-08	3.489e-08	1.3219e-07	3.3027e-08	-1.6426e-09	-2.947e-08	7.0829e-08	3.6465e-08
2.4343e-08	2.0421e-08	2.4559e-08	2.491e-08	-1.0213e-08	-1.4076e-08	3.2178e-08	3.4727e-08	1.655e-07	2.0489e-07	1.2486e-08	7.301e-08	-1.0551e-08	2.2007e-08	3.265e-08	-1.9324e-08	-2.5593e-08	-2.2317e-09	-8.9848e-09	5.8897e-08	-4.1028e-08	7.503e-08	1.0807e-07	-1.9018e-08	3.1625e-09	9.3171e-08	4.7713e-08	-5.4074e-08	1.8299e-08	4.8923e-08	1.4871e-08	-4.4933e-08	5.3564e-08	4.1845e-08	1.3535e-08	3.6866e-08	1.293e-07	3.1321e-08	-1.0394e-09	-3.0511e-08	7.0048e-08	3.9659e-08
2.657e-08	2.0436e-08	2.6436e-08	2.3726e-08	-1.3599e-08	-1.4447e-08	3.1508e-08	3.428e-08	1.611e-07	1.9363e-07	1.2157e-08	7.1934e-08	-1.0359e-09	2.1211e-08	3.7035e-08	-1.9895e-08	-2.5125e-08	-3.7569e-09	-8.5645e-09	5.8016e-08	-4.229e-08	7.2967e-08	1.0527e-07	-1.7832e-08	3.3495e-09	9.2363e-08	4.9647e-08	-5.3919e-08	1.972e-08	4.2113e-08	1.3022e-08	-5.2857e-08	5.3332e-08	4.127e-08	1.4547e-08	3.8684e-08	1.2587e-07	2.9475e-08	-4.4608e-10	-3.1689e-08	6.8994e-08	4.2733e-08
2.8782e-08	2.0269e-08	2.8232e-08	2.2508e-08	-1.6964e-08	-1.4937e-08	3.0721e-08	3.3712e-08	1.5654e-07	1.8264e-07	1.2077e-08	7.1077e-08	8.5933e-09	2.0386e-08	4.1419e-08	-2.0424e-08	-2.4584e-08	-5.1353e-09	-8.0799e-09	5.7164e-08	-4.3456e-08	7.0705e-08	1.0165e-07	-1.6496e-08	3.5209e-09	9.145e-08	5.1594e-08	-5.3785e-08	2.1094e-08	3.5226e-08	1.1405e-08	-6.0691e-08	5.3037e-08	4.0629e-08	1.5518e-08	4.0354e-08	1.2192e-07	2.751e-08	1.5176e-10	-3.2993e-08	6.7689e-08	4.5663e-08
3.0957e-08	1.994e-08	2.9937e-08	2.1285e-08	-2.0291e-08	-1.5539e-08	2.9796e-08	3.3019e-08	1.5196e-07	1.7203e-07	1.2235e-08	7.0448e-08	1.8266e-08	1.9558e-08	4.5778e-08	-2.0874e-08	-2.3989e-08	-6.3706e-09	-7.5624e-09	5.6347e-08	-4.449e-08	6.825e-08	9.7268e-08	-1.4983e-08	3.6959e-09	9.0444e-08	5.3516e-08	-5.3633e-08	2.2455e-08	2.833e-08	1.0065e-08	-6.8367e-08	5.2694e-08	3.9933e-08	1.6447e-08	4.1887e-08	1.1749e-07	2.5453e-08	7.7013e-10	-3.4407e-08	6.6155e-08	4.8431e-08
3.3074e-08	1.9469e-08	3.1542e-08	2.0083e-08	-2.3564e-08	-1.6242e-08	2.8716e-08	3.2198e-08	1.4746e-07	1.6185e-07	1.2619e-08	7.005e-08	2.7913e-08	1.875e-08	5.0087e-08	-2.1207e-08	-2.3362e-08	-7.4683e-09	-7.0416e-09	5.5569e-08	-4.536e-08	6.5608e-08	9.2165e-08	-1.3273e-08	3.8921e-09	8.9355e-08	5.5372e-08	-5.3424e-08	2.3839e-08	2.1493e-08	9.0413e-09	-7.5814e-08	5.2316e-08	3.9195e-08	1.7329e-08	4.3296e-08	1.1264e-07	2.3328e-08	1.4258e-09	-3.5916e-08	6.4421e-08	5.1018e-08
3.5111e-08	1.8879e-08	3.3041e-08	1.893e-08	-2.6762e-08	-1.7037e-08	2.7462e-08	3.1246e-08	1.4315e-07	1.5216e-07	1.3209e-08	6.9882e-08	3.7469e-08	1.7985e-08	5.4317e-08	-2.1384e-08	-2.2723e-08	-8.4356e-09	-6.5446e-09	5.4833e-08	-4.6039e-08	6.2789e-08	8.6407e-08	-1.1348e-08	4.1259e-09	8.8195e-08	5.7123e-08	-5.3122e-08	2.5276e-08	1.4779e-08	8.3705e-09	-8.2964e-08	5.192e-08	3.8425e-08	1.8164e-08	4.4594e-08	1.0741e-07	2.116e-08	2.1355e-09	-3.7497e-08	6.2512e-08	5.3412e-08
3.7045e-08	1.8197e-08	3.4428e-08	1.7853e-08	-2.9868e-08	-1.791e-08	2.6019e-08	3.016e-08	1.3912e-07	1.4302e-07	1.398e-08	6.9937e-08	4.6874e-08	1.7283e-08	5.844e-08	-2.1368e-08	-2.2093e-08	-9.2815e-09	-6.095e-09	5.414e-08	-4.65e-08	5.9802e-08	8.0065e-08	-9.1949e-09	4.412e-09	8.6969e-08	5.8726e-08	-5.2693e-08	2.6795e-08	8.2532e-09	8.0834e-09	-8.9746e-08	5.1518e-08	3.7638e-08	1.8947e-08	4.5797e-08	1.0188e-07	1.8975e-08	2.9159e-09	-3.9127e-08	6.0459e-08	5.56e-08
3.8856e-08	1.7449e-08	3.57e-08	1.6876e-08	-3.2859e-08	-1.8849e-08	2.4374e-08	2.894e-08	1.3544e-07	1.3447e-07	1.4902e-08	7.0205e-08	5.6074e-08	1.6666e-08	6.2423e-08	-2.1126e-08	-2.1491e-08	-1.0017e-08	-5.7133e-09	5.349e-08	-4.6722e-08	5.6659e-08	7.3217e-08	-6.8064e-09	4.7638e-09	8.5683e-08	6.0141e-08	-5.2106e-08	2.842e-08	1.9733e-09	8.2043e-09	-9.6093e-08	5.1126e-08	3.6848e-08	1.9677e-08	4.692e-08	9.6092e-08	1.6795e-08	3.7825e-09	-4.0777e-08	5.8289e-08	5.7575e-08
4.0523e-08	1.6664e-08	3.6853e-08	1.6023e-08	-3.5714e-08	-1.9838e-08	2.2518e-08	2.7584e-08	1.3218e-07	1.2652e-07	1.5944e-08	7.0671e-08	6.502e-08	1.615e-08	6.6236e-08	-2.0628e-08	-2.0933e-08	-1.0653e-08	-5.4164e-09	5.2882e-08	-4.6686e-08	5.3373e-08	6.5947e-08	-4.1782e-09	5.1933e-09	8.4344e-08	6.133e-08	-5.1333e-08	3.0174e-08	-4.0054e-09	8.7511e-09	-1.0194e-07	5.0756e-08	3.607e-08	2.035e-08	4.7977e-08	9.0127e-08	1.4643e-08	4.7503e-09	-4.2416e-08	5.603e-08	5.933e-08
4.2027e-08	1.5872e-08	3.7886e-08	1.5315e-08	-3.841e-08	-2.0863e-08	2.0443e-08	2.6091e-08	1.2938e-07	1.1919e-07	1.7068e-08	7.1318e-08	7.3669e-08	1.5752e-08	6.985e-08	-1.9846e-08	-2.043e-08	-1.1205e-08	-5.2177e-09	5.2314e-08	-4.6377e-08	4.9959e-08	5.8339e-08	-1.3101e-09	5.7116e-09	8.2953e-08	6.2257e-08	-5.0349e-08	3.2072e-08	-9.633e-09	9.734e-09	-1.0723e-07	5.0418e-08	3.5317e-08	2.0967e-08	4.8984e-08	8.4048e-08	1.2541e-08	5.8325e-09	-4.4012e-08	5.371e-08	6.0861e-08
4.3351e-08	1.5102e-08	3.8799e-08	1.4771e-08	-4.0924e-08	-2.1908e-08	1.8148e-08	2.4462e-08	1.2708e-07	1.1247e-07	1.8237e-08	7.2124e-08	8.1983e-08	1.5484e-08	7.3239e-08	-1.8759e-08	-1.9991e-08	-1.1687e-08	-5.1271e-09	5.1782e-08	-4.5783e-08	4.6432e-08	5.048e-08	1.7945e-09	6.329e-09	8.1517e-08	6.289e-08	-4.9132e-08	3.4129e-08	-1.4865e-08	1.1156e-08	-1.119e-07	5.0122e-08	3.4608e-08	2.1526e-08	4.9953e-08	7.7922e-08	1.0506e-08	7.0415e-09	-4.5527e-08	5.1357e-08	6.2169e-08
4.448e-08	1.4386e-08	3.9593e-08	1.4406e-08	-4.3234e-08	-2.296e-08	1.5635e-08	2.2697e-08	1.2528e-07	1.0635e-07	1.9408e-08	7.3066e-08	8.993e-08	1.5357e-08	7.6383e-08	-1.7353e-08	-1.9615e-08	-1.2115e-08	-5.1515e-09	5.1279e-08	-4.4893e-08	4.2812e-08	4.2454e-08	5.1295e-09	7.0547e-09	8.004e-08	6.32e-08	-4.7667e-08	3.6355e-08	-1.9665e-08	1.3012e-08	-1.1592e-07	4.9876e-08	3.3957e-08	2.2029e-08	5.0899e-08	7.1812e-08	8.5589e-09	8.3881e-09	-4.6922e-08	4.8995e-08	6.3257e-08
4.5399e-08	1.3753e-08	4.0269e-08	1.4234e-08	-4.5317e-08	-2.4005e-08	1.2911e-08	2.0796e-08	1.2399e-07	1.008e-07	2.054e-08	7.4118e-08	9.7483e-08	1.538e-08	7.9265e-08	-1.5617e-08	-1.9302e-08	-1.2505e-08	-5.2948e-09	5.08e-08	-4.37e-08	3.9118e-08	3.4343e-08	8.6856e-09	7.8978e-09	7.8527e-08	6.3166e-08	-4.5939e-08	3.8757e-08	-2.3999e-08	1.5289e-08	-1.1924e-07	4.9686e-08	3.338e-08	2.2477e-08	5.1831e-08	6.5781e-08	6.7159e-09	9.882e-09	-4.8157e-08	4.6651e-08	6.4129e-08
4.6097e-08	1.3235e-08	4.0831e-08	1.4266e-08	-4.7154e-08	-2.5034e-08	9.9881e-09	1.8761e-08	1.2318e-07	9.5767e-08	2.1589e-08	7.5258e-08	1.0462e-07	1.5558e-08	8.1876e-08	-1.3545e-08	-1.9043e-08	-1.2875e-08	-5.558e-09	5.0337e-08	-4.2199e-08	3.5371e-08	2.6226e-08	1.2452e-08	8.8667e-09	7.6987e-08	6.2769e-08	-4.3938e-08	4.1339e-08	-2.7844e-08	1.7968e-08	-1.2182e-07	4.9559e-08	3.2894e-08	2.2872e-08	5.276e-08	5.9885e-08	4.9936e-09	1.1531e-08	-4.919e-08	4.4349e-08	6.4796e-08
4.6567e-08	1.286e-08	4.1285e-08	1.4507e-08	-4.8729e-08	-2.6036e-08	6.8836e-09	1.6596e-08	1.2281e-07	9.1206e-08	2.2515e-08	7.6462e-08	1.1132e-07	1.5895e-08	8.4209e-08	-1.1141e-08	-1.8827e-08	-1.3241e-08	-5.9396e-09	4.988e-08	-4.0387e-08	3.1593e-08	1.8174e-08	1.6414e-08	9.9694e-09	7.5431e-08	6.1999e-08	-4.1661e-08	4.4101e-08	-3.118e-08	2.1022e-08	-1.2366e-07	4.9498e-08	3.2513e-08	2.3218e-08	5.3694e-08	5.4178e-08	3.4079e-09	1.3342e-08	-4.998e-08	4.2112e-08	6.5267e-08
4.6803e-08	1.2655e-08	4.1636e-08	1.4962e-08	-5.0024e-08	-2.7005e-08	3.6193e-09	1.4302e-08	1.2284e-07	8.7056e-08	2.3276e-08	7.7714e-08	1.1758e-07	1.639e-08	8.6264e-08	-8.4107e-09	-1.8644e-08	-1.362e-08	-6.4354e-09	4.9421e-08	-3.8261e-08	2.7807e-08	1.025e-08	2.0557e-08	1.1214e-08	7.3873e-08	6.0852e-08	-3.9104e-08	4.7036e-08	-3.3996e-08	2.4417e-08	-1.2473e-07	4.9507e-08	3.2251e-08	2.3518e-08	5.4641e-08	4.8707e-08	1.9737e-09	1.532e-08	-5.0486e-08	3.9963e-08	6.5555e-08
4.6802e-08	1.2646e-08	4.1892e-08	1.563e-08	-5.103e-08	-2.7936e-08	2.2236e-10	1.1885e-08	1.2321e-07	8.3254e-08	2.3834e-08	7.9e-08	1.2337e-07	1.7043e-08	8.8047e-08	-5.3663e-09	-1.8478e-08	-1.4029e-08	-7.0391e-09	4.8951e-08	-3.5822e-08	2.4033e-08	2.5106e-09	2.4865e-08	1.2607e-08	7.2328e-08	5.9329e-08	-3.627e-08	5.0137e-08	-3.6285e-08	2.8114e-08	-1.2503e-07	4.9591e-08	3.2121e-08	2.3778e-08	5.5605e-08	4.351e-08	7.0537e-10	1.7466e-08	-5.0673e-08	3.7923e-08	6.5673e-08
4.6567e-08	1.2855e-08	4.206e-08	1.6508e-08	-5.1735e-08	-2.8826e-08	-3.2753e-09	9.3492e-09	1.2387e-07	7.9735e-08	2.4156e-08	8.0313e-08	1.287e-07	1.7847e-08	8.9568e-08	-2.0253e-09	-1.8315e-08	-1.4481e-08	-7.7418e-09	4.8458e-08	-3.3069e-08	2.0292e-08	-4.9965e-09	2.9318e-08	1.4155e-08	7.0817e-08	5.7443e-08	-3.3163e-08	5.3388e-08	-3.8048e-08	3.2069e-08	-1.2456e-07	4.9751e-08	3.2133e-08	2.4e-08	5.6591e-08	3.862e-08	-3.8379e-10	1.9782e-08	-5.0512e-08	3.6012e-08	6.5635e-08
4.6102e-08	1.3302e-08	4.2149e-08	1.759e-08	-5.2138e-08	-2.9674e-08	-6.8371e-09	6.7015e-09	1.2473e-07	7.6436e-08	2.4213e-08	8.1649e-08	1.3354e-07	1.8796e-08	9.0838e-08	1.5904e-09	-1.8142e-08	-1.499e-08	-8.5327e-09	4.7935e-08	-3.0004e-08	1.6601e-08	-1.2232e-08	3.3895e-08	1.5865e-08	6.9361e-08	5.5211e-08	-2.9793e-08	5.6771e-08	-3.9292e-08	3.6234e-08	-1.2336e-07	4.999e-08	3.2296e-08	2.4191e-08	5.7599e-08	3.406e-08	-1.2819e-09	2.2264e-08	-4.9978e-08	3.4248e-08	6.5455e-08
4.5417e-08	1.4004e-08	4.2168e-08	1.8866e-08	-5.2236e-08	-3.0481e-08	-1.0423e-08	3.9484e-09	1.2573e-07	7.3293e-08	2.3981e-08	8.3009e-08	1.379e-07	1.9879e-08	9.1876e-08	5.4547e-09	-1.7945e-08	-1.5566e-08	-9.3994e-09	4.7371e-08	-2.663e-08	1.2975e-08	-1.9166e-08	3.8575e-08	1.774e-08	6.7985e-08	5.266e-08	-2.6171e-08	6.026e-08	-4.0027e-08	4.0556e-08	-1.2143e-07	5.0308e-08	3.2616e-08	2.4355e-08	5.863e-08	2.9846e-08	-1.9788e-09	2.4908e-08	-4.9052e-08	3.2651e-08	6.5147e-08
4.4522e-08	1.4972e-08	4.2125e-08	2.0323e-08	-5.2037e-08	-3.125e-08	-1.3988e-08	1.0976e-09	1.268e-07	7.0249e-08	2.3442e-08	8.4399e-08	1.4176e-07	2.1083e-08	9.2697e-08	9.5377e-09	-1.771e-08	-1.6218e-08	-1.0328e-08	4.6759e-08	-2.295e-08	9.4287e-09	-2.5772e-08	4.3333e-08	1.9781e-08	6.6714e-08	4.9825e-08	-2.2314e-08	6.3827e-08	-4.0272e-08	4.4979e-08	-1.1883e-07	5.0706e-08	3.3094e-08	2.4497e-08	5.968e-08	2.5984e-08	-2.4671e-09	2.7708e-08	-4.7722e-08	3.1234e-08	6.4722e-08
4.3435e-08	1.6216e-08	4.2029e-08	2.1948e-08	-5.1548e-08	-3.1985e-08	-1.7486e-08	-1.8429e-09	1.2785e-07	6.7252e-08	2.2586e-08	8.5824e-08	1.4511e-07	2.2395e-08	9.3319e-08	1.3806e-08	-1.7428e-08	-1.6951e-08	-1.1302e-08	4.6091e-08	-1.8972e-08	5.9714e-09	-3.2033e-08	4.8143e-08	2.1989e-08	6.5571e-08	4.6748e-08	-1.8239e-08	6.7437e-08	-4.0049e-08	4.9446e-08	-1.156e-07	5.118e-08	3.3731e-08	2.4624e-08	6.0746e-08	2.2475e-08	-2.7419e-09	3.0655e-08	-4.5984e-08	3.0013e-08	6.4192e-08
4.2173e-08	1.7738e-08	4.1889e-08	2.3723e-08	-5.0782e-08	-3.2692e-08	-2.0869e-08	-4.8642e-09	1.2882e-07	6.4253e-08	2.1406e-08	8.7292e-08	1.4794e-07	2.3798e-08	9.3759e-08	1.8224e-08	-1.7089e-08	-1.7766e-08	-1.2304e-08	4.5361e-08	-1.4702e-08	2.6125e-09	-3.7935e-08	5.2976e-08	2.436e-08	6.4581e-08	4.3476e-08	-1.397e-08	7.1051e-08	-3.9384e-08	5.3895e-08	-1.1181e-07	5.1729e-08	3.4523e-08	2.4739e-08	6.182e-08	1.9313e-08	-2.801e-09	3.3736e-08	-4.3837e-08	2.8996e-08	6.3568e-08
4.0759e-08	1.954e-08	4.1715e-08	2.5632e-08	-4.9753e-08	-3.3375e-08	-2.4088e-08	-7.9573e-09	1.2964e-07	6.1214e-08	1.9902e-08	8.8811e-08	1.5025e-07	2.5276e-08	9.4031e-08	2.2753e-08	-1.6686e-08	-1.8662e-08	-1.3315e-08	4.4562e-08	-1.0151e-08	-6.4113e-10	-4.3471e-08	5.7804e-08	2.6887e-08	6.3767e-08	4.0063e-08	-9.5327e-09	7.4628e-08	-3.8308e-08	5.8268e-08	-1.0752e-07	5.2345e-08	3.5465e-08	2.4848e-08	6.2893e-08	1.6487e-08	-2.6452e-09	3.694e-08	-4.1286e-08	2.819e-08	6.2857e-08
3.9219e-08	2.1616e-08	4.1517e-08	2.7655e-08	-4.8476e-08	-3.404e-08	-2.7097e-08	-1.1112e-08	1.3025e-07	5.8102e-08	1.808e-08	9.039e-08	1.5203e-07	2.6811e-08	9.4149e-08	2.7351e-08	-1.6215e-08	-1.9634e-08	-1.4315e-08	4.369e-08	-5.3338e-09	-3.7842e-09	-4.8638e-08	6.2593e-08	2.9558e-08	6.315e-08	3.6564e-08	-4.9572e-09	7.8123e-08	-3.6858e-08	6.2503e-08	-1.0282e-07	5.3022e-08	3.6545e-08	2.4955e-08	6.3955e-08	1.3982e-08	-2.278e-09	4.0248e-08	-3.8341e-08	2.7597e-08	6.2066e-08
3.7578e-08	2.3958e-08	4.1305e-08	2.9773e-08	-4.6968e-08	-3.4691e-08	-2.9849e-08	-1.4319e-08	1.306e-07	5.4891e-08	1.5948e-08	9.2034e-08	1.5327e-07	2.8385e-08	9.4125e-08	3.1977e-08	-1.5672e-08	-2.0673e-08	-1.5279e-08	4.274e-08	-2.6817e-10	-6.8127e-09	-5.3439e-08	6.7311e-08	3.2358e-08	6.2748e-08	3.3038e-08	-2.7797e-10	8.1492e-08	-3.5071e-08	6.6543e-08	-9.7788e-08	5.375e-08	3.7751e-08	2.5064e-08	6.4993e-08	1.1779e-08	-1.7053e-09	4.3644e-08	-3.5012e-08	2.7215e-08	6.1196e-08
3.5865e-08	2.6553e-08	4.109e-08	3.1965e-08	-4.5248e-08	-3.533e-08	-3.2302e-08	-1.7568e-08	1.3066e-07	5.1562e-08	1.3518e-08	9.3751e-08	1.5397e-07	2.9982e-08	9.3967e-08	3.6587e-08	-1.5057e-08	-2.1766e-08	-1.6184e-08	4.1708e-08	5.023e-09	-9.7235e-09	-5.7881e-08	7.1921e-08	3.5267e-08	6.2577e-08	2.9542e-08	4.4667e-09	8.4691e-08	-3.2991e-08	7.0332e-08	-9.2508e-08	5.4516e-08	3.9066e-08	2.518e-08	6.5994e-08	9.8542e-09	-9.3625e-10	4.7106e-08	-3.1313e-08	2.7037e-08	6.0251e-08
3.411e-08	2.9386e-08	4.0883e-08	3.4211e-08	-4.3333e-08	-3.5958e-08	-3.4415e-08	-2.0848e-08	1.3037e-07	4.8103e-08	1.0807e-08	9.5541e-08	1.541e-07	3.1585e-08	9.3687e-08	4.1136e-08	-1.437e-08	-2.2898e-08	-1.7004e-08	4.0593e-08	1.0511e-08	-1.2514e-08	-6.1979e-08	7.6389e-08	3.8261e-08	6.2646e-08	2.6131e-08	9.2351e-09	8.7679e-08	-3.0662e-08	7.3818e-08	-8.7071e-08	5.531e-08	4.0472e-08	2.5305e-08	6.6943e-08	8.1836e-09	1.779e-11	5.0611e-08	-2.726e-08	2.705e-08	5.9227e-08
3.2342e-08	3.2439e-08	4.0695e-08	3.6492e-08	-4.1243e-08	-3.6572e-08	-3.6155e-08	-2.4148e-08	1.2973e-07	4.4504e-08	7.8324e-09	9.7405e-08	1.5368e-07	3.3176e-08	9.3291e-08	4.5582e-08	-1.3613e-08	-2.4052e-08	-1.7712e-08	3.9391e-08	1.6164e-08	-1.5183e-08	-6.5747e-08	8.0679e-08	4.1311e-08	6.2963e-08	2.2855e-08	1.3983e-08	9.0414e-08	-2.813e-08	7.6953e-08	-8.1564e-08	5.6115e-08	4.1949e-08	2.5444e-08	6.7824e-08	6.7391e-09	1.1428e-09	5.4132e-08	-2.2871e-08	2.7237e-08	5.8121e-08
3.0591e-08	3.5692e-08	4.0537e-08	3.8787e-08	-3.9002e-08	-3.717e-08	-3.7491e-08	-2.7458e-08	1.2871e-07	4.0762e-08	4.6161e-09	9.934e-08	1.527e-07	3.474e-08	9.2789e-08	4.9879e-08	-1.2789e-08	-2.5209e-08	-1.828e-08	3.8102e-08	2.1941e-08	-1.7727e-08	-6.9207e-08	8.4754e-08	4.4386e-08	6.3525e-08	1.9762e-08	1.8666e-08	9.2858e-08	-2.5444e-08	7.9695e-08	-7.6077e-08	5.6918e-08	4.3473e-08	2.56e-08	6.862e-08	5.4913e-09	2.4224e-09	5.7641e-08	-1.8166e-08	2.7575e-08	5.6927e-08
2.8886e-08	3.9123e-08	4.0419e-08	4.1077e-08	-3.663e-08	-3.7744e-08	-3.8396e-08	-3.0767e-08	1.2731e-07	3.687e-08	1.1813e-09	1.0134e-07	1.5115e-07	3.6258e-08	9.219e-08	5.3987e-08	-1.19e-08	-2.6349e-08	-1.8682e-08	3.6724e-08	2.7798e-08	-2.0147e-08	-7.2383e-08	8.858e-08	4.7451e-08	6.4323e-08	1.6887e-08	2.3238e-08	9.4972e-08	-2.2653e-08	8.2007e-08	-7.0695e-08	5.7703e-08	4.5021e-08	2.5775e-08	6.9316e-08	4.4098e-09	3.838e-09	6.1106e-08	-1.3168e-08	2.8037e-08	5.5638e-08
2.7255e-08	4.2708e-08	4.0353e-08	4.3343e-08	-3.4154e-08	-3.8287e-08	-3.8853e-08	-3.4066e-08	1.2552e-07	3.2824e-08	-2.4465e-09	1.0339e-07	1.4904e-07	3.7714e-08	9.1505e-08	5.7862e-08	-1.0949e-08	-2.7452e-08	-1.8889e-08	3.5257e-08	3.3689e-08	-2.244e-08	-7.5299e-08	9.2124e-08	5.047e-08	6.5338e-08	1.4262e-08	2.7655e-08	9.672e-08	-1.9806e-08	8.3861e-08	-6.55e-08	5.8454e-08	4.657e-08	2.5971e-08	6.9897e-08	3.4642e-09	5.3687e-09	6.4493e-08	-7.9048e-09	2.8593e-08	5.4246e-08
2.5725e-08	4.6424e-08	4.0348e-08	4.5566e-08	-3.1597e-08	-3.8787e-08	-3.8848e-08	-3.7345e-08	1.2335e-07	2.8615e-08	-6.2404e-09	1.0549e-07	1.4637e-07	3.9091e-08	9.0743e-08	6.1468e-08	-9.9369e-09	-2.8499e-08	-1.8876e-08	3.3701e-08	3.956e-08	-2.4607e-08	-7.7984e-08	9.5353e-08	5.3408e-08	6.6541e-08	1.1908e-08	3.1877e-08	9.8065e-08	-1.6951e-08	8.5232e-08	-6.0573e-08	5.9155e-08	4.8096e-08	2.6189e-08	7.0348e-08	2.6247e-09	6.9912e-09	6.7767e-08	-2.403e-09	2.921e-08	5.2742e-08
2.4319e-08	5.0247e-08	4.0416e-08	4.7727e-08	-2.8987e-08	-3.9235e-08	-3.8375e-08	-4.0594e-08	1.2082e-07	2.4228e-08	-1.0173e-08	1.0762e-07	1.4316e-07	4.0372e-08	8.9917e-08	6.4766e-08	-8.8668e-09	-2.9471e-08	-1.862e-08	3.2057e-08	4.5356e-08	-2.6647e-08	-8.0465e-08	9.8239e-08	5.6229e-08	6.7896e-08	9.8377e-09	3.587e-08	9.8973e-08	-1.4138e-08	8.6105e-08	-5.5986e-08	5.979e-08	4.9576e-08	2.643e-08	7.0656e-08	1.8626e-09	8.6797e-09	7.0889e-08	3.3073e-09	2.9853e-08	5.1118e-08
2.306e-08	5.4152e-08	4.0566e-08	4.9808e-08	-2.6351e-08	-3.9619e-08	-3.7433e-08	-4.3804e-08	1.1793e-07	1.9645e-08	-1.4215e-08	1.0976e-07	1.3943e-07	4.1542e-08	8.9035e-08	6.7723e-08	-7.7401e-09	-3.0352e-08	-1.81e-08	3.0325e-08	5.1021e-08	-2.8559e-08	-8.2768e-08	1.0075e-07	5.8901e-08	6.9352e-08	8.057e-09	3.9603e-08	9.941e-08	-1.1413e-08	8.6471e-08	-5.1805e-08	6.0347e-08	5.0987e-08	2.6691e-08	7.081e-08	1.1498e-09	1.0407e-08	7.3823e-08	9.1953e-09	3.049e-08	4.9367e-08
2.1967e-08	5.8116e-08	4.0805e-08	5.179e-08	-2.3715e-08	-3.9929e-08	-3.603e-08	-4.6967e-08	1.1472e-07	1.4847e-08	-1.834e-08	1.119e-07	1.352e-07	4.2586e-08	8.8107e-08	7.031e-08	-6.5586e-09	-3.1127e-08	-1.7299e-08	2.8508e-08	5.6497e-08	-3.0343e-08	-8.492e-08	1.0287e-07	6.1395e-08	7.0856e-08	6.5619e-09	4.3056e-08	9.9347e-08	-8.8196e-09	8.6328e-08	-4.8087e-08	6.0809e-08	5.231e-08	2.6973e-08	7.0799e-08	4.5949e-10	1.2143e-08	7.653e-08	1.523e-08	3.1087e-08	4.7483e-08
2.1056e-08	6.2116e-08	4.114e-08	5.3657e-08	-2.1107e-08	-4.0153e-08	-3.418e-08	-5.0075e-08	1.1121e-07	9.8066e-09	-2.2521e-08	1.1403e-07	1.3051e-07	4.3491e-08	8.7137e-08	7.25e-08	-5.3234e-09	-3.1784e-08	-1.6203e-08	2.6609e-08	6.1728e-08	-3.1998e-08	-8.6944e-08	1.0457e-07	6.3684e-08	7.2344e-08	5.341e-09	4.6212e-08	9.8759e-08	-6.3996e-09	8.5683e-08	-4.488e-08	6.1164e-08	5.3524e-08	2.727e-08	7.0617e-08	-2.3474e-10	1.3857e-08	7.8976e-08	2.138e-08	3.1611e-08	4.5461e-08
2.0338e-08	6.6128e-08	4.1576e-08	5.5391e-08	-1.8551e-08	-4.0283e-08	-3.1901e-08	-5.3119e-08	1.0741e-07	4.4983e-09	-2.6732e-08	1.1612e-07	1.2539e-07	4.4244e-08	8.6128e-08	7.4269e-08	-4.0352e-09	-3.2314e-08	-1.4806e-08	2.4633e-08	6.6658e-08	-3.3521e-08	-8.8865e-08	1.0583e-07	6.5747e-08	7.3753e-08	4.3751e-09	4.9065e-08	9.7625e-08	-4.1911e-09	8.4549e-08	-4.2216e-08	6.1401e-08	5.4613e-08	2.758e-08	7.0258e-08	-9.5846e-10	1.5519e-08	8.1127e-08	2.7618e-08	3.2036e-08	4.3298e-08
1.9823e-08	7.0131e-08	4.2116e-08	5.6977e-08	-1.6071e-08	-4.0312e-08	-2.9219e-08	-5.6092e-08	1.0338e-07	-1.1068e-09	-3.0948e-08	1.1816e-07	1.1988e-07	4.4837e-08	8.5075e-08	7.56e-08	-2.694e-09	-3.2708e-08	-1.3102e-08	2.2585e-08	7.1233e-08	-3.4911e-08	-9.0701e-08	1.0663e-07	6.7566e-08	7.5015e-08	3.6382e-09	5.1613e-08	9.5933e-08	-2.2285e-09	8.2947e-08	-4.0118e-08	6.1509e-08	5.556e-08	2.7898e-08	6.9718e-08	-1.7363e-09	1.7098e-08	8.2954e-08	3.3914e-08	3.2334e-08	4.0995e-08
1.9515e-08	7.4102e-08	4.2759e-08	5.8398e-08	-1.3691e-08	-4.0233e-08	-2.6165e-08	-5.8987e-08	9.9135e-08	-7.0376e-09	-3.5147e-08	1.2014e-07	1.1401e-07	4.5262e-08	8.3969e-08	7.6476e-08	-1.2996e-09	-3.2962e-08	-1.1093e-08	2.0473e-08	7.5405e-08	-3.6163e-08	-9.2473e-08	1.0698e-07	6.9126e-08	7.6062e-08	3.098e-09	5.3861e-08	9.3678e-08	-5.4177e-10	8.0906e-08	-3.8592e-08	6.1478e-08	5.6352e-08	2.8219e-08	6.8996e-08	-2.5914e-09	1.8564e-08	8.4432e-08	4.0242e-08	3.2484e-08	3.8551e-08
1.9414e-08	7.8022e-08	4.3502e-08	5.964e-08	-1.1432e-08	-4.0042e-08	-2.2772e-08	-6.1798e-08	9.4717e-08	-1.3321e-08	-3.9303e-08	1.2204e-07	1.0782e-07	4.5515e-08	8.2796e-08	7.6888e-08	1.4909e-10	-3.3073e-08	-8.7854e-09	1.8307e-08	7.9131e-08	-3.7274e-08	-9.4195e-08	1.0685e-07	7.0419e-08	7.683e-08	2.7178e-09	5.5817e-08	9.0866e-08	8.4341e-10	7.8459e-08	-3.7637e-08	6.1301e-08	5.6978e-08	2.8535e-08	6.8094e-08	-3.5449e-09	1.9888e-08	8.5542e-08	4.6576e-08	3.2468e-08	3.5971e-08
1.9519e-08	8.1868e-08	4.4342e-08	6.0686e-08	-9.3159e-09	-3.9738e-08	-1.9082e-08	-6.4519e-08	9.0165e-08	-1.9982e-08	-4.3393e-08	1.2385e-07	1.0136e-07	4.5594e-08	8.1538e-08	7.6831e-08	1.6538e-09	-3.3041e-08	-6.1915e-09	1.6095e-08	8.2372e-08	-3.8239e-08	-9.5879e-08	1.0625e-07	7.1435e-08	7.7259e-08	2.457e-09	5.7491e-08	8.7516e-08	1.9062e-09	7.5647e-08	-3.7236e-08	6.0971e-08	5.7429e-08	2.8842e-08	6.7015e-08	-4.6151e-09	2.1046e-08	8.6274e-08	5.289e-08	3.227e-08	3.326e-08
1.9823e-08	8.5622e-08	4.527e-08	6.1524e-08	-7.3621e-09	-3.9318e-08	-1.5138e-08	-6.7143e-08	8.5518e-08	-2.7036e-08	-4.7394e-08	1.2557e-07	9.4655e-08	4.5497e-08	8.0174e-08	7.6302e-08	3.2168e-09	-3.2867e-08	-3.3277e-09	1.3849e-08	8.51e-08	-3.9056e-08	-9.7532e-08	1.0518e-07	7.2171e-08	7.7294e-08	2.2722e-09	5.8896e-08	8.3657e-08	2.6306e-09	7.2513e-08	-3.7365e-08	6.0482e-08	5.7698e-08	2.9132e-08	6.5766e-08	-5.8163e-09	2.2012e-08	8.6624e-08	5.9154e-08	3.1881e-08	3.0427e-08
2.0317e-08	8.9262e-08	4.6278e-08	6.2136e-08	-5.5893e-09	-3.8783e-08	-1.0987e-08	-6.9666e-08	8.0815e-08	-3.4494e-08	-5.1279e-08	1.2717e-07	8.7747e-08	4.5226e-08	7.8681e-08	7.5305e-08	4.8412e-09	-3.2557e-08	-2.1606e-10	1.158e-08	8.7294e-08	-3.972e-08	-9.9156e-08	1.0364e-07	7.2627e-08	7.6888e-08	2.1183e-09	6.0043e-08	7.9331e-08	3.0054e-09	6.9105e-08	-3.7991e-08	5.983e-08	5.7781e-08	2.9403e-08	6.4355e-08	-7.1588e-09	2.2769e-08	8.6598e-08	6.5341e-08	3.1293e-08	2.748e-08
2.0989e-08	9.2769e-08	4.7358e-08	6.2509e-08	-4.0139e-09	-3.8137e-08	-6.6787e-09	-7.2082e-08	7.6096e-08	-4.2353e-08	-5.5022e-08	1.2865e-07	8.067e-08	4.4784e-08	7.7033e-08	7.3849e-08	6.53e-09	-3.2118e-08	3.1166e-09	9.3007e-09	8.8943e-08	-4.023e-08	-1.0075e-07	1.0165e-07	7.2805e-08	7.6005e-08	1.9492e-09	6.0944e-08	7.4595e-08	3.0244e-09	6.5475e-08	-3.9072e-08	5.9014e-08	5.7676e-08	2.9649e-08	6.2792e-08	-8.6482e-09	2.3299e-08	8.621e-08	7.1417e-08	3.0504e-08	2.4432e-08
2.1824e-08	9.6124e-08	4.8498e-08	6.2628e-08	-2.65e-09	-3.7382e-08	-2.2672e-09	-7.4387e-08	7.1394e-08	-5.0597e-08	-5.8595e-08	1.3e-07	7.3457e-08	4.4177e-08	7.5209e-08	7.1947e-08	8.2856e-09	-3.1559e-08	6.6382e-09	7.0223e-09	9.0045e-08	-4.0585e-08	-1.023e-07	9.9233e-08	7.2708e-08	7.4617e-08	1.7184e-09	6.1611e-08	6.9515e-08	2.6865e-09	6.1674e-08	-4.0561e-08	5.8031e-08	5.7383e-08	2.9869e-08	6.109e-08	-1.0286e-08	2.3592e-08	8.5484e-08	7.7348e-08	2.9514e-08	2.1296e-08
2.2807e-08	9.9308e-08	4.969e-08	6.2479e-08	-1.5086e-09	-3.6524e-08	2.1926e-09	-7.6576e-08	6.6741e-08	-5.9199e-08	-6.1971e-08	1.312e-07	6.6141e-08	4.3409e-08	7.3184e-08	6.9617e-08	1.0109e-08	-3.0891e-08	1.0312e-08	4.7576e-09	9.0611e-08	-4.0788e-08	-1.038e-07	9.6407e-08	7.2345e-08	7.2708e-08	1.3802e-09	6.2051e-08	6.4169e-08	1.9959e-09	5.7756e-08	-4.2401e-08	5.6882e-08	5.6904e-08	3.0063e-08	5.9264e-08	-1.2068e-08	2.3643e-08	8.445e-08	8.3097e-08	2.833e-08	1.809e-08
2.3917e-08	1.023e-07	5.0924e-08	6.205e-08	-5.9796e-10	-3.5571e-08	6.6438e-09	-7.8645e-08	6.2163e-08	-6.8116e-08	-6.5118e-08	1.3224e-07	5.8754e-08	4.2491e-08	7.094e-08	6.6881e-08	1.2e-08	-3.0131e-08	1.4097e-08	2.5185e-09	9.066e-08	-4.0841e-08	-1.0523e-07	9.3205e-08	7.1725e-08	7.0272e-08	8.8999e-10	6.2275e-08	5.8645e-08	9.6208e-10	5.3774e-08	-4.4531e-08	5.5567e-08	5.6245e-08	3.0232e-08	5.7328e-08	-1.3989e-08	2.3448e-08	8.3147e-08	8.8624e-08	2.6958e-08	1.4833e-08
2.5137e-08	1.051e-07	5.2191e-08	6.1329e-08	7.6632e-11	-3.453e-08	1.1029e-08	-8.0588e-08	5.7681e-08	-7.7292e-08	-6.8008e-08	1.3309e-07	5.1327e-08	4.143e-08	6.8459e-08	6.3767e-08	1.3953e-08	-2.9293e-08	1.7946e-08	3.1698e-10	9.0223e-08	-4.075e-08	-1.0658e-07	8.9667e-08	7.0861e-08	6.7315e-08	2.0536e-10	6.2292e-08	5.3037e-08	-4.0027e-10	4.9782e-08	-4.6883e-08	5.409e-08	5.5412e-08	3.0382e-08	5.5301e-08	-1.6036e-08	2.301e-08	8.1619e-08	9.3889e-08	2.5409e-08	1.1546e-08
2.6444e-08	1.0767e-07	5.3484e-08	6.0307e-08	5.1248e-10	-3.3409e-08	1.5292e-08	-8.2401e-08	5.3311e-08	-8.666e-08	-7.0612e-08	1.3374e-07	4.3896e-08	4.0238e-08	6.5731e-08	6.0305e-08	1.5963e-08	-2.8395e-08	2.181e-08	-1.8356e-09	8.9341e-08	-4.0523e-08	-1.0783e-07	8.5836e-08	6.9767e-08	6.3852e-08	-7.1331e-10	6.2111e-08	4.7446e-08	-2.0712e-09	4.583e-08	-4.9389e-08	5.2455e-08	5.4414e-08	3.0517e-08	5.32e-08	-1.8193e-08	2.2339e-08	7.9912e-08	9.8854e-08	2.3697e-08	8.253e-09
2.7815e-08	1.1002e-07	5.48e-08	5.8979e-08	7.0921e-10	-3.2216e-08	1.9376e-08	-8.4078e-08	4.9063e-08	-9.6147e-08	-7.2903e-08	1.3415e-07	3.6496e-08	3.8926e-08	6.2753e-08	5.6532e-08	1.8018e-08	-2.7459e-08	2.5635e-08	-3.9285e-09	8.8064e-08	-4.0168e-08	-1.0896e-07	8.1764e-08	6.8463e-08	5.9909e-08	-1.9019e-09	6.174e-08	4.1977e-08	-4.0254e-09	4.1966e-08	-5.1977e-08	5.0668e-08	5.3259e-08	3.0647e-08	5.1046e-08	-2.0436e-08	2.1445e-08	7.8076e-08	1.0348e-07	2.1839e-08	4.9814e-09
2.9229e-08	1.1213e-07	5.6133e-08	5.7341e-08	6.6844e-10	-3.096e-08	2.3229e-08	-8.5613e-08	4.4944e-08	-1.0567e-07	-7.4859e-08	1.343e-07	2.9164e-08	3.7508e-08	5.953e-08	5.2484e-08	2.0104e-08	-2.6503e-08	2.9365e-08	-5.9519e-09	8.6449e-08	-3.9697e-08	-1.0995e-07	7.7505e-08	6.6967e-08	5.552e-08	-3.3916e-09	6.119e-08	3.6738e-08	-6.2331e-09	3.8234e-08	-5.4576e-08	4.8737e-08	5.1958e-08	3.0782e-08	4.8859e-08	-2.2736e-08	2.0345e-08	7.616e-08	1.0773e-07	1.9854e-08	1.7603e-09
3.0661e-08	1.1399e-07	5.7484e-08	5.5393e-08	3.9337e-10	-2.9645e-08	2.68e-08	-8.7e-08	4.0956e-08	-1.1515e-07	-7.6463e-08	1.3415e-07	2.194e-08	3.5996e-08	5.6075e-08	4.8204e-08	2.2202e-08	-2.5551e-08	3.2939e-08	-7.8963e-09	8.456e-08	-3.9119e-08	-1.1077e-07	7.3119e-08	6.5305e-08	5.073e-08	-5.2086e-09	6.0471e-08	3.1834e-08	-8.6594e-09	3.4676e-08	-5.7119e-08	4.6668e-08	5.0525e-08	3.0933e-08	4.6658e-08	-2.5057e-08	1.9061e-08	7.421e-08	1.1159e-07	1.7764e-08	-1.3788e-09
3.2087e-08	1.1561e-07	5.8851e-08	5.3141e-08	-1.1131e-10	-2.8279e-08	3.0044e-08	-8.8231e-08	3.7099e-08	-1.2449e-07	-7.7701e-08	1.3368e-07	1.4866e-08	3.4404e-08	5.2412e-08	4.3733e-08	2.4292e-08	-2.4623e-08	3.6298e-08	-9.7534e-09	8.2464e-08	-3.8446e-08	-1.1139e-07	6.8668e-08	6.35e-08	4.5588e-08	-7.3738e-09	5.9597e-08	2.7374e-08	-1.1266e-08	3.1326e-08	-5.9538e-08	4.4474e-08	4.8969e-08	3.1113e-08	4.4463e-08	-2.7359e-08	1.7618e-08	7.2267e-08	1.1501e-07	1.5596e-08	-4.4024e-09
3.3484e-08	1.1698e-07	6.0235e-08	5.0593e-08	-8.3904e-10	-2.6864e-08	3.2922e-08	-8.9301e-08	3.3369e-08	-1.3361e-07	-7.8566e-08	1.3285e-07	7.9846e-09	3.2745e-08	4.857e-08	3.9117e-08	2.6347e-08	-2.3741e-08	3.9381e-08	-1.1515e-08	8.023e-08	-3.7689e-08	-1.1178e-07	6.4217e-08	6.1579e-08	4.0147e-08	-9.9026e-09	5.8581e-08	2.346e-08	-1.4009e-08	2.8215e-08	-6.1772e-08	4.2165e-08	4.7305e-08	3.1335e-08	4.2294e-08	-2.9593e-08	1.6043e-08	7.0369e-08	1.1797e-07	1.3376e-08	-7.2757e-09
3.4829e-08	1.1811e-07	6.1635e-08	4.7759e-08	-1.7809e-09	-2.5403e-08	3.5398e-08	-9.02e-08	2.9759e-08	-1.4241e-07	-7.9055e-08	1.3164e-07	1.3381e-09	3.1035e-08	4.4586e-08	3.4403e-08	2.8339e-08	-2.2925e-08	4.2128e-08	-1.3175e-08	7.7926e-08	-3.6861e-08	-1.119e-07	5.9831e-08	5.957e-08	3.4465e-08	-1.2805e-08	5.744e-08	2.0191e-08	-1.6845e-08	2.5366e-08	-6.3762e-08	3.9755e-08	4.5546e-08	3.1615e-08	4.0166e-08	-3.1711e-08	1.4368e-08	6.8546e-08	1.2047e-07	1.1131e-08	-9.9633e-09
3.61e-08	1.1899e-07	6.3052e-08	4.4657e-08	-2.9248e-09	-2.3895e-08	3.7445e-08	-9.0923e-08	2.6262e-08	-1.5081e-07	-7.917e-08	1.3002e-07	-5.0327e-09	2.9289e-08	4.0506e-08	2.9638e-08	3.0237e-08	-2.2196e-08	4.448e-08	-1.4727e-08	7.5617e-08	-3.597e-08	-1.1172e-07	5.5573e-08	5.75e-08	2.8601e-08	-1.6087e-08	5.6193e-08	1.7658e-08	-1.9725e-08	2.2798e-08	-6.545e-08	3.7258e-08	4.3703e-08	3.1965e-08	3.8094e-08	-3.3657e-08	1.2624e-08	6.6821e-08	1.2248e-07	8.8929e-09	-1.2429e-08
3.7276e-08	1.1963e-07	6.4484e-08	4.1306e-08	-4.2553e-09	-2.234e-08	3.9041e-08	-9.1462e-08	2.287e-08	-1.5871e-07	-7.8917e-08	1.2796e-07	-1.1091e-08	2.7522e-08	3.6383e-08	2.4871e-08	3.2007e-08	-2.1572e-08	4.6384e-08	-1.6167e-08	7.3363e-08	-3.5026e-08	-1.1119e-07	5.1502e-08	5.5395e-08	2.2615e-08	-1.9749e-08	5.4861e-08	1.5944e-08	-2.2601e-08	2.0523e-08	-6.6782e-08	3.4689e-08	4.1788e-08	3.24e-08	3.6091e-08	-3.5377e-08	1.0845e-08	6.5214e-08	1.24e-07	6.6899e-09	-1.464e-08
3.8339e-08	1.2004e-07	6.5927e-08	3.7729e-08	-5.7533e-09	-2.0736e-08	4.0173e-08	-9.1811e-08	1.9574e-08	-1.6604e-07	-7.8307e-08	1.2546e-07	-1.6804e-08	2.5753e-08	3.2274e-08	2.0153e-08	3.3612e-08	-2.1072e-08	4.7787e-08	-1.7491e-08	7.122e-08	-3.4036e-08	-1.1027e-07	4.7676e-08	5.328e-08	1.6565e-08	-2.3786e-08	5.3471e-08	1.5116e-08	-2.5422e-08	1.8544e-08	-6.7708e-08	3.2067e-08	3.9815e-08	3.2933e-08	3.4166e-08	-3.6813e-08	9.0633e-09	6.3733e-08	1.2502e-07	4.5525e-09	-1.6562e-08
3.9272e-08	1.2022e-07	6.7377e-08	3.3955e-08	-7.3958e-09	-1.908e-08	4.0834e-08	-9.1962e-08	1.6366e-08	-1.7269e-07	-7.7351e-08	1.2249e-07	-2.2141e-08	2.3996e-08	2.8244e-08	1.5532e-08	3.5015e-08	-2.0713e-08	4.8645e-08	-1.8698e-08	6.9234e-08	-3.3004e-08	-1.0891e-07	4.4146e-08	5.1177e-08	1.0509e-08	-2.8189e-08	5.205e-08	1.5226e-08	-2.8139e-08	1.6861e-08	-6.8177e-08	2.9409e-08	3.7792e-08	3.3576e-08	3.2329e-08	-3.791e-08	7.3121e-09	6.2385e-08	1.2555e-07	2.5104e-09	-1.8165e-08
4.0063e-08	1.2018e-07	6.8826e-08	3.0015e-08	-9.1564e-09	-1.7369e-08	4.1023e-08	-9.191e-08	1.324e-08	-1.7861e-07	-7.6063e-08	1.1906e-07	-2.7078e-08	2.2268e-08	2.4359e-08	1.106e-08	3.6178e-08	-2.0508e-08	4.8919e-08	-1.9789e-08	6.7445e-08	-3.1931e-08	-1.0707e-07	4.0955e-08	4.9105e-08	4.502e-09	-3.2941e-08	5.0628e-08	1.6306e-08	-3.0704e-08	1.5468e-08	-6.8141e-08	2.6732e-08	3.5732e-08	3.4341e-08	3.0586e-08	-3.8616e-08	5.622e-09	6.117e-08	1.2558e-07	5.9216e-10	-1.9424e-08
4.0698e-08	1.1993e-07	7.0268e-08	2.5945e-08	-1.1005e-08	-1.5601e-08	4.0748e-08	-9.1649e-08	1.0192e-08	-1.8372e-07	-7.4458e-08	1.1515e-07	-3.159e-08	2.0586e-08	2.0689e-08	6.7846e-09	3.7062e-08	-2.0471e-08	4.8577e-08	-2.0766e-08	6.5887e-08	-3.0818e-08	-1.0471e-07	3.814e-08	4.7083e-08	-1.4034e-09	-3.8022e-08	4.9237e-08	1.8368e-08	-3.3068e-08	1.4351e-08	-6.7555e-08	2.4055e-08	3.3642e-08	3.5237e-08	2.8942e-08	-3.8884e-08	4.0219e-09	6.0083e-08	1.2513e-07	-1.1752e-09	-2.0316e-08
4.1168e-08	1.1948e-07	7.1691e-08	2.1785e-08	-1.291e-08	-1.3776e-08	4.0023e-08	-9.1175e-08	7.2202e-09	-1.8795e-07	-7.2552e-08	1.1078e-07	-3.5654e-08	1.8961e-08	1.73e-08	2.7532e-09	3.763e-08	-2.0612e-08	4.7596e-08	-2.1631e-08	6.4583e-08	-2.9663e-08	-1.0179e-07	3.5728e-08	4.5123e-08	-7.158e-09	-4.3402e-08	4.7913e-08	2.1401e-08	-3.5185e-08	1.3496e-08	-6.6375e-08	2.1396e-08	3.1533e-08	3.6273e-08	2.74e-08	-3.8676e-08	2.5377e-09	5.9116e-08	1.2421e-07	-2.7664e-09	-2.0825e-08
4.1468e-08	1.1882e-07	7.3086e-08	1.7576e-08	-1.4834e-08	-1.1892e-08	3.8868e-08	-9.0486e-08	4.3226e-09	-1.9125e-07	-7.0364e-08	1.0596e-07	-3.9249e-08	1.7408e-08	1.4255e-08	-9.9041e-10	3.7852e-08	-2.094e-08	4.5964e-08	-2.2391e-08	6.3548e-08	-2.8464e-08	-9.8284e-08	3.3736e-08	4.3237e-08	-1.2716e-08	-4.9044e-08	4.6686e-08	2.5372e-08	-3.7013e-08	1.288e-08	-6.4558e-08	1.877e-08	2.9411e-08	3.7455e-08	2.5965e-08	-3.7959e-08	1.1925e-09	5.8259e-08	1.2284e-07	-4.1584e-09	-2.0939e-08
4.1592e-08	1.1799e-07	7.4442e-08	1.3363e-08	-1.6743e-08	-9.9531e-09	3.731e-08	-8.958e-08	1.4998e-09	-1.9358e-07	-6.7911e-08	1.0069e-07	-4.2352e-08	1.5936e-08	1.161e-08	-4.4067e-09	3.7698e-08	-2.1459e-08	4.3677e-08	-2.3052e-08	6.2792e-08	-2.7218e-08	-9.419e-08	3.2172e-08	4.1435e-08	-1.8035e-08	-5.4905e-08	4.5591e-08	3.0225e-08	-3.8511e-08	1.248e-08	-6.2063e-08	1.6195e-08	2.7284e-08	3.8783e-08	2.4639e-08	-3.6714e-08	6.2422e-12	5.75e-08	1.2104e-07	-5.3312e-09	-2.0651e-08
4.1537e-08	1.1697e-07	7.5746e-08	9.1909e-09	-1.8599e-08	-7.9621e-09	3.5382e-08	-8.8458e-08	-1.2471e-09	-1.9491e-07	-6.5216e-08	9.5011e-08	-4.4947e-08	1.4553e-08	9.4137e-09	-7.4618e-09	3.715e-08	-2.2168e-08	4.0742e-08	-2.3621e-08	6.2316e-08	-2.5924e-08	-8.9504e-08	3.1031e-08	3.9723e-08	-2.3077e-08	-6.0935e-08	4.4658e-08	3.5882e-08	-3.9641e-08	1.2269e-08	-5.885e-08	1.3683e-08	2.516e-08	4.0258e-08	2.3424e-08	-3.4932e-08	-1.0047e-09	5.6826e-08	1.1884e-07	-6.2681e-09	-1.9963e-08
4.1304e-08	1.1578e-07	7.6987e-08	5.107e-09	-2.0365e-08	-5.9253e-09	3.3121e-08	-8.7124e-08	-3.9166e-09	-1.9523e-07	-6.2303e-08	8.8936e-08	-4.7019e-08	1.3268e-08	7.7028e-09	-1.0128e-08	3.6194e-08	-2.3066e-08	3.7178e-08	-2.4105e-08	6.2113e-08	-2.4581e-08	-8.4241e-08	3.0299e-08	3.8107e-08	-2.7807e-08	-6.7079e-08	4.3913e-08	4.2245e-08	-4.0372e-08	1.222e-08	-5.4883e-08	1.1249e-08	2.3045e-08	4.1872e-08	2.2321e-08	-3.2612e-08	-1.8272e-09	5.6222e-08	1.1627e-07	-6.9568e-09	-1.8879e-08
4.0894e-08	1.1444e-07	7.8152e-08	1.1584e-09	-2.2005e-08	-3.851e-09	3.0568e-08	-8.5582e-08	-6.5071e-09	-1.9455e-07	-5.9198e-08	8.25e-08	-4.8558e-08	1.2082e-08	6.5042e-09	-1.2387e-08	3.4829e-08	-2.4143e-08	3.3013e-08	-2.4514e-08	6.217e-08	-2.3192e-08	-7.8435e-08	2.9952e-08	3.6587e-08	-3.2195e-08	-7.3278e-08	4.3381e-08	4.9201e-08	-4.0674e-08	1.2304e-08	-5.0126e-08	8.9027e-09	2.0945e-08	4.3618e-08	2.1333e-08	-2.9766e-08	-2.4515e-09	5.5677e-08	1.1338e-07	-7.3897e-09	-1.741e-08
4.0312e-08	1.1295e-07	7.9226e-08	-2.6083e-09	-2.3484e-08	-1.7487e-09	2.7768e-08	-8.3841e-08	-9.0172e-09	-1.9287e-07	-5.593e-08	7.5738e-08	-4.9561e-08	1.0997e-08	5.833e-09	-1.4225e-08	3.3061e-08	-2.5387e-08	2.8288e-08	-2.4852e-08	6.2465e-08	-2.1761e-08	-7.213e-08	2.9956e-08	3.5167e-08	-3.6217e-08	-7.947e-08	4.3081e-08	5.6619e-08	-4.0526e-08	1.2491e-08	-4.4551e-08	6.6544e-09	1.8866e-08	4.5481e-08	2.0457e-08	-2.6415e-08	-2.8714e-09	5.5179e-08	1.1021e-07	-7.5635e-09	-1.5573e-08
3.9564e-08	1.1132e-07	8.0197e-08	-6.1479e-09	-2.477e-08	3.7061e-10	2.4767e-08	-8.1909e-08	-1.1446e-08	-1.9026e-07	-5.2529e-08	6.869e-08	-5.0033e-08	1.0011e-08	5.692e-09	-1.5639e-08	3.091e-08	-2.6781e-08	2.3052e-08	-2.5128e-08	6.2974e-08	-2.0292e-08	-6.5384e-08	3.0269e-08	3.3844e-08	-3.9852e-08	-8.559e-08	4.303e-08	6.4361e-08	-3.991e-08	1.2754e-08	-3.8137e-08	4.5112e-09	1.6815e-08	4.7444e-08	1.9694e-08	-2.2592e-08	-3.084e-09	5.4719e-08	1.068e-07	-7.4799e-09	-1.3388e-08
3.866e-08	1.0957e-07	8.1051e-08	-9.4174e-09	-2.5835e-08	2.4952e-09	2.1613e-08	-7.9796e-08	-1.3792e-08	-1.8676e-07	-4.9029e-08	6.1399e-08	-4.9986e-08	9.1171e-09	6.0726e-09	-1.6631e-08	2.8405e-08	-2.8306e-08	1.7363e-08	-2.5346e-08	6.3663e-08	-1.8795e-08	-5.8267e-08	3.0841e-08	3.2617e-08	-4.3085e-08	-9.1576e-08	4.3238e-08	7.2277e-08	-3.8814e-08	1.3063e-08	-3.087e-08	2.4783e-09	1.4796e-08	4.9486e-08	1.9039e-08	-1.834e-08	-3.0898e-09	5.4291e-08	1.0321e-07	-7.1453e-09	-1.0879e-08
3.761e-08	1.077e-07	8.1772e-08	-1.2377e-08	-2.6653e-08	4.6128e-09	1.8354e-08	-7.7514e-08	-1.6057e-08	-1.8246e-07	-4.5463e-08	5.3907e-08	-4.9439e-08	8.3078e-09	6.9549e-09	-1.7211e-08	2.559e-08	-2.9934e-08	1.1288e-08	-2.551e-08	6.4496e-08	-1.7281e-08	-5.0855e-08	3.1619e-08	3.1482e-08	-4.5908e-08	-9.7363e-08	4.3711e-08	8.0216e-08	-3.7234e-08	1.3394e-08	-2.2749e-08	5.5888e-10	1.2815e-08	5.1584e-08	1.849e-08	-1.371e-08	-2.8922e-09	5.389e-08	9.9501e-08	-6.5705e-09	-8.0733e-09
3.6427e-08	1.0572e-07	8.2347e-08	-1.4989e-08	-2.7202e-08	6.7111e-09	1.5039e-08	-7.5074e-08	-1.8242e-08	-1.7743e-07	-4.1865e-08	4.6257e-08	-4.8421e-08	7.5729e-09	8.3092e-09	-1.7394e-08	2.2516e-08	-3.1639e-08	4.902e-09	-2.5625e-08	6.5433e-08	-1.5762e-08	-4.3232e-08	3.2542e-08	3.0434e-08	-4.8318e-08	-1.0289e-07	4.4453e-08	8.8022e-08	-3.517e-08	1.3722e-08	-1.3785e-08	-1.2463e-09	1.0877e-08	5.3713e-08	1.8038e-08	-8.7601e-09	-2.4975e-09	5.3515e-08	9.5719e-08	-5.7707e-09	-5.0004e-09
3.5124e-08	1.0366e-07	8.2762e-08	-1.7224e-08	-2.7465e-08	8.778e-09	1.1718e-08	-7.2488e-08	-2.0348e-08	-1.7179e-07	-3.8271e-08	3.8492e-08	-4.6967e-08	6.9019e-09	1.0096e-08	-1.7199e-08	1.9247e-08	-3.3387e-08	-1.7163e-09	-2.5693e-08	6.6432e-08	-1.4253e-08	-3.5485e-08	3.355e-08	2.9467e-08	-5.0317e-08	-1.0811e-07	4.546e-08	9.5539e-08	-3.2631e-08	1.4025e-08	-4.0044e-09	-2.9387e-09	8.9867e-09	5.5848e-08	1.7677e-08	-3.5579e-09	-1.9144e-09	5.3165e-08	9.1927e-08	-4.7648e-09	-1.6922e-09
3.3716e-08	1.0151e-07	8.3005e-08	-1.9055e-08	-2.7429e-08	1.0802e-08	8.4385e-09	-6.9768e-08	-2.2379e-08	-1.6563e-07	-3.4714e-08	3.0653e-08	-4.5118e-08	6.2846e-09	1.2269e-08	-1.6651e-08	1.5856e-08	-3.5147e-08	-8.483e-09	-2.5717e-08	6.7446e-08	-1.2769e-08	-2.7709e-08	3.4578e-08	2.8575e-08	-5.1913e-08	-1.1297e-07	4.6727e-08	1.0261e-07	-2.9633e-08	1.4285e-08	6.5474e-09	-4.5215e-09	7.1482e-09	5.796e-08	1.7396e-08	1.8246e-09	-1.1539e-09	5.2842e-08	8.8179e-08	-3.5749e-09	1.8175e-09
3.2216e-08	9.9288e-08	8.3065e-08	-2.0459e-08	-2.7089e-08	1.2772e-08	5.2478e-09	-6.6924e-08	-2.4334e-08	-1.5905e-07	-3.1228e-08	2.2778e-08	-4.2924e-08	5.7117e-09	1.4772e-08	-1.5774e-08	1.2422e-08	-3.688e-08	-1.5312e-08	-2.5699e-08	6.8428e-08	-1.1326e-08	-1.9997e-08	3.5566e-08	2.7751e-08	-5.312e-08	-1.1743e-07	4.8241e-08	1.091e-07	-2.6197e-08	1.4485e-08	1.7808e-08	-5.9999e-09	5.3651e-09	6.0023e-08	1.7184e-08	7.31e-09	-2.2942e-10	5.255e-08	8.453e-08	-2.2258e-09	5.4932e-09
3.0638e-08	9.6999e-08	8.2932e-08	-2.1424e-08	-2.6443e-08	1.4678e-08	2.1914e-09	-6.3966e-08	-2.6213e-08	-1.5216e-07	-2.7844e-08	1.4903e-08	-4.0437e-08	5.1759e-09	1.7542e-08	-1.4599e-08	9.0257e-09	-3.8552e-08	-2.2115e-08	-2.5642e-08	6.9332e-08	-9.9414e-09	-1.2444e-08	3.6451e-08	2.6988e-08	-5.3954e-08	-1.2143e-07	4.9987e-08	1.1487e-07	-2.2351e-08	1.4614e-08	2.9694e-08	-7.3805e-09	3.6406e-09	6.2012e-08	1.7028e-08	1.2816e-08	8.4277e-10	5.2293e-08	8.103e-08	-7.4347e-10	9.2973e-09
2.8997e-08	9.4649e-08	8.26e-08	-2.194e-08	-2.5494e-08	1.651e-08	-6.8781e-10	-6.0903e-08	-2.8012e-08	-1.4506e-07	-2.4594e-08	7.0602e-09	-3.7714e-08	4.6721e-09	2.0508e-08	-1.3154e-08	5.7528e-09	-4.0123e-08	-2.8805e-08	-2.5547e-08	7.0112e-08	-8.6305e-09	-5.1407e-09	3.7177e-08	2.6276e-08	-5.4438e-08	-1.2496e-07	5.1946e-08	1.1978e-07	-1.8129e-08	1.466e-08	4.2107e-08	-8.6709e-09	1.9773e-09	6.3903e-08	1.6913e-08	1.8259e-08	2.0438e-09	5.2075e-08	7.7725e-08	8.4466e-10	1.3191e-08
2.7304e-08	9.2242e-08	8.2065e-08	-2.2006e-08	-2.4252e-08	1.826e-08	-3.3507e-09	-5.7743e-08	-2.9726e-08	-1.3782e-07	-2.1506e-08	-7.2168e-10	-3.4813e-08	4.1973e-09	2.3596e-08	-1.1472e-08	2.6863e-09	-4.1558e-08	-3.5297e-08	-2.5414e-08	7.0723e-08	-7.4093e-09	1.8265e-09	3.7689e-08	2.5608e-08	-5.46e-08	-1.2797e-07	5.4095e-08	1.2373e-07	-1.357e-08	1.4615e-08	5.4929e-08	-9.88e-09	3.7717e-10	6.5671e-08	1.6825e-08	2.3549e-08	3.3518e-09	5.1897e-08	7.4657e-08	2.5109e-09	1.7132e-08
2.5575e-08	8.9779e-08	8.1327e-08	-2.1626e-08	-2.2732e-08	1.9918e-08	-5.7625e-09	-5.4492e-08	-3.1352e-08	-1.3051e-07	-1.861e-08	-8.4176e-09	-3.1787e-08	3.7511e-09	2.6724e-08	-9.5844e-09	-9.3453e-11	-4.2822e-08	-4.1509e-08	-2.5246e-08	7.1124e-08	-6.2926e-09	8.3802e-09	3.794e-08	2.4973e-08	-5.447e-08	-1.3045e-07	5.641e-08	1.2661e-07	-8.7174e-09	1.4474e-08	6.8028e-08	-1.1017e-08	-1.1584e-09	6.7298e-08	1.6747e-08	2.8602e-08	4.7429e-09	5.1762e-08	7.1862e-08	4.2277e-09	2.108e-08
2.3819e-08	8.7262e-08	8.0392e-08	-2.0811e-08	-2.0952e-08	2.1477e-08	-7.8938e-09	-5.1156e-08	-3.2884e-08	-1.232e-07	-1.5931e-08	-1.6006e-08	-2.869e-08	3.3352e-09	2.9812e-08	-7.524e-09	-2.5122e-09	-4.3879e-08	-4.7365e-08	-2.5041e-08	7.1278e-08	-5.2944e-09	1.4452e-08	3.7887e-08	2.4362e-08	-5.4086e-08	-1.3237e-07	5.8863e-08	1.2835e-07	-3.6167e-09	1.4233e-08	8.1261e-08	-1.2091e-08	-2.6286e-09	6.8762e-08	1.6662e-08	3.3331e-08	6.1904e-09	5.1669e-08	6.9367e-08	5.968e-09	2.4992e-08
2.2049e-08	8.469e-08	7.9271e-08	-1.958e-08	-1.8935e-08	2.2928e-08	-9.7211e-09	-4.7741e-08	-3.4319e-08	-1.159e-07	-1.3495e-08	-2.347e-08	-2.5569e-08	2.953e-09	3.2775e-08	-5.3234e-09	-4.5033e-09	-4.4701e-08	-5.2793e-08	-2.48e-08	7.1152e-08	-4.4271e-09	1.9983e-08	3.7496e-08	2.3764e-08	-5.3489e-08	-1.3372e-07	6.1426e-08	1.2887e-07	1.6832e-09	1.3888e-08	9.4476e-08	-1.3114e-08	-4.0333e-09	7.0048e-08	1.6555e-08	3.7655e-08	7.6663e-09	5.1615e-08	6.7195e-08	7.706e-09	2.8824e-08
2.0274e-08	8.2061e-08	7.7978e-08	-1.7955e-08	-1.6707e-08	2.4262e-08	-1.1227e-08	-4.4249e-08	-3.5655e-08	-1.0867e-07	-1.1325e-08	-3.0793e-08	-2.2467e-08	2.6096e-09	3.5529e-08	-3.015e-09	-6.0098e-09	-4.5259e-08	-5.7732e-08	-2.4521e-08	7.0717e-08	-3.7016e-09	2.4924e-08	3.6742e-08	2.3169e-08	-5.2728e-08	-1.3449e-07	6.4068e-08	1.2815e-07	7.1328e-09	1.344e-08	1.0752e-07	-1.4095e-08	-5.373e-09	7.114e-08	1.6411e-08	4.1496e-08	9.1413e-09	5.1598e-08	6.5359e-08	9.4175e-09	3.2535e-08
1.8505e-08	7.9373e-08	7.6533e-08	-1.5967e-08	-1.4296e-08	2.547e-08	-1.2402e-08	-4.0685e-08	-3.6893e-08	-1.015e-07	-9.4419e-09	-3.7964e-08	-1.9421e-08	2.3107e-09	3.7993e-08	-6.3116e-10	-6.9863e-09	-4.5532e-08	-6.2131e-08	-2.4202e-08	6.9948e-08	-3.1267e-09	2.9237e-08	3.5606e-08	2.2566e-08	-5.1852e-08	-1.3468e-07	6.6759e-08	1.2616e-07	1.2682e-08	1.2888e-08	1.2022e-07	-1.5045e-08	-6.649e-09	7.2025e-08	1.6215e-08	4.4784e-08	1.0586e-08	5.1613e-08	6.3864e-08	1.108e-08	3.6082e-08
1.675e-08	7.6621e-08	7.4959e-08	-1.3651e-08	-1.1732e-08	2.6542e-08	-1.3241e-08	-3.7052e-08	-3.8033e-08	-9.4399e-08	-7.8633e-09	-4.4974e-08	-1.6467e-08	2.0618e-09	4.0087e-08	1.7968e-09	-7.3993e-09	-4.5502e-08	-6.5948e-08	-2.3842e-08	6.8826e-08	-2.709e-09	3.2894e-08	3.4081e-08	2.1945e-08	-5.0917e-08	-1.3428e-07	6.9465e-08	1.229e-07	1.828e-08	1.2236e-08	1.3242e-07	-1.5974e-08	-7.8631e-09	7.2693e-08	1.5955e-08	4.7452e-08	1.197e-08	5.1656e-08	6.2703e-08	1.2673e-08	3.9425e-08
1.5017e-08	7.3803e-08	7.3282e-08	-1.1045e-08	-9.0453e-09	2.747e-08	-1.3747e-08	-3.3351e-08	-3.9077e-08	-8.7366e-08	-6.6026e-09	-5.1814e-08	-1.3632e-08	1.8678e-09	4.1737e-08	4.2385e-09	-7.2291e-09	-4.5157e-08	-6.9155e-08	-2.3438e-08	6.7335e-08	-2.4529e-09	3.5876e-08	3.2167e-08	2.1297e-08	-4.9977e-08	-1.3331e-07	7.2153e-08	1.1843e-07	2.3878e-08	1.1487e-08	1.4397e-07	-1.6893e-08	-9.0177e-09	7.3134e-08	1.5622e-08	4.9447e-08	1.3267e-08	5.1721e-08	6.1863e-08	1.4178e-08	4.2526e-08
1.3313e-08	7.0916e-08	7.153e-08	-8.193e-09	-6.2675e-09	2.8243e-08	-1.393e-08	-2.9586e-08	-4.0028e-08	-8.0387e-08	-5.6693e-09	-5.8478e-08	-1.0939e-08	1.7316e-09	4.2874e-08	6.6649e-09	-6.4694e-09	-4.4491e-08	-7.1734e-08	-2.2989e-08	6.5465e-08	-2.3605e-09	3.8173e-08	2.9875e-08	2.0612e-08	-4.909e-08	-1.3177e-07	7.4789e-08	1.1277e-07	2.943e-08	1.0648e-08	1.5471e-07	-1.781e-08	-1.0115e-08	7.3342e-08	1.5206e-08	5.0723e-08	1.445e-08	5.18e-08	6.1322e-08	1.5578e-08	4.5346e-08
1.1646e-08	6.7957e-08	6.9728e-08	-5.1415e-09	-3.4303e-09	2.8854e-08	-1.3804e-08	-2.5758e-08	-4.0893e-08	-7.3444e-08	-5.0683e-09	-6.4959e-08	-8.4076e-09	1.6541e-09	4.344e-08	9.049e-09	-5.1277e-09	-4.3503e-08	-7.3681e-08	-2.2494e-08	6.3211e-08	-2.4311e-09	3.9789e-08	2.7223e-08	1.9883e-08	-4.831e-08	-1.2968e-07	7.7335e-08	1.0603e-07	3.4889e-08	9.7288e-09	1.6449e-07	-1.8734e-08	-1.1159e-08	7.3312e-08	1.4704e-08	5.1248e-08	1.5494e-08	5.1884e-08	6.105e-08	1.6859e-08	4.7855e-08
1.0022e-08	6.4927e-08	6.7902e-08	-1.9388e-09	-5.6498e-10	2.9295e-08	-1.3391e-08	-2.1871e-08	-4.1682e-08	-6.6514e-08	-4.8e-09	-7.1251e-08	-6.0531e-09	1.6336e-09	4.3389e-08	1.1365e-08	-3.2253e-09	-4.2198e-08	-7.5003e-08	-2.1954e-08	6.0575e-08	-2.661e-09	4.0734e-08	2.4238e-08	1.9104e-08	-4.7691e-08	-1.2705e-07	7.9757e-08	9.828e-08	4.0214e-08	8.7386e-09	1.732e-07	-1.9673e-08	-1.2152e-08	7.3041e-08	1.4111e-08	5.1002e-08	1.6375e-08	5.1963e-08	6.1008e-08	1.8009e-08	5.0022e-08
8.4487e-09	6.1825e-08	6.6072e-08	1.3651e-09	2.298e-09	2.956e-08	-1.2717e-08	-1.7928e-08	-4.241e-08	-5.9577e-08	-4.8598e-09	-7.7346e-08	-3.886e-09	1.6661e-09	4.2685e-08	1.3591e-08	-7.965e-10	-4.0588e-08	-7.5718e-08	-2.137e-08	5.7567e-08	-3.0435e-09	4.103e-08	2.0954e-08	1.8271e-08	-4.7284e-08	-1.2392e-07	8.2017e-08	8.965e-08	4.5364e-08	7.6907e-09	1.8072e-07	-2.0632e-08	-1.3096e-08	7.2529e-08	1.3428e-08	4.998e-08	1.7073e-08	5.2022e-08	6.1154e-08	1.9017e-08	5.1822e-08
6.9316e-09	5.8654e-08	6.4257e-08	4.72e-09	5.1294e-09	2.9646e-08	-1.1813e-08	-1.3932e-08	-4.309e-08	-5.261e-08	-5.2381e-09	-8.3237e-08	-1.913e-09	1.7449e-09	4.1308e-08	1.5706e-08	2.1124e-09	-3.8689e-08	-7.5857e-08	-2.0745e-08	5.4201e-08	-3.5686e-09	4.0712e-08	1.7412e-08	1.738e-08	-4.7135e-08	-1.2029e-07	8.4079e-08	8.0265e-08	5.0301e-08	6.5995e-09	1.8694e-07	-2.1617e-08	-1.3997e-08	7.1775e-08	1.2656e-08	4.8193e-08	1.7567e-08	5.2046e-08	6.144e-08	1.9876e-08	5.3235e-08
5.4775e-09	5.5418e-08	6.2467e-08	8.0761e-09	7.9017e-09	2.955e-08	-1.0713e-08	-9.8888e-09	-4.3741e-08	-4.5594e-08	-5.9212e-09	-8.8916e-08	-1.362e-10	1.861e-09	3.9249e-08	1.7691e-08	5.4442e-09	-3.6521e-08	-7.5456e-08	-2.0083e-08	5.0502e-08	-4.2232e-09	3.9825e-08	1.3657e-08	1.643e-08	-4.7286e-08	-1.1621e-07	8.5906e-08	7.0268e-08	5.4993e-08	5.481e-09	1.9179e-07	-2.2629e-08	-1.4855e-08	7.0781e-08	1.1802e-08	4.5666e-08	1.7841e-08	5.2018e-08	6.1813e-08	2.0581e-08	5.4245e-08
4.0923e-09	5.212e-08	6.0711e-08	1.1385e-08	1.0589e-08	2.9274e-08	-9.4536e-09	-5.8041e-09	-4.4381e-08	-3.8518e-08	-6.8912e-09	-9.4373e-08	1.4465e-09	2.003e-09	3.6517e-08	1.9531e-08	9.1323e-09	-3.4112e-08	-7.4564e-08	-1.9391e-08	4.6499e-08	-4.9907e-09	3.8427e-08	9.74e-09	1.5424e-08	-4.7771e-08	-1.117e-07	8.7464e-08	5.9812e-08	5.9408e-08	4.3519e-09	1.952e-07	-2.3671e-08	-1.5675e-08	6.9552e-08	1.0871e-08	4.2437e-08	1.788e-08	5.1916e-08	6.2221e-08	2.1131e-08	5.4842e-08
2.7814e-09	4.8767e-08	5.899e-08	1.4599e-08	1.3169e-08	2.8823e-08	-8.0735e-09	-1.6841e-09	-4.5025e-08	-3.1375e-08	-8.1271e-09	-9.9599e-08	2.8408e-09	2.1573e-09	3.3133e-08	2.1214e-08	1.3102e-08	-3.1491e-08	-7.3231e-08	-1.8675e-08	4.2231e-08	-5.852e-09	3.6588e-08	5.7127e-09	1.4363e-08	-4.8614e-08	-1.0679e-07	8.8719e-08	4.9057e-08	6.3519e-08	3.2298e-09	1.9713e-07	-2.4742e-08	-1.646e-08	6.809e-08	9.8718e-09	3.8563e-08	1.767e-08	5.1717e-08	6.2609e-08	2.1525e-08	5.5022e-08
1.5497e-09	4.5365e-08	5.7301e-08	1.7676e-08	1.562e-08	2.8206e-08	-6.6108e-09	2.4633e-09	-4.5688e-08	-2.417e-08	-9.6049e-09	-1.0458e-07	4.0558e-09	2.3086e-09	2.913e-08	2.2728e-08	1.7273e-08	-2.8692e-08	-7.1516e-08	-1.7942e-08	3.7739e-08	-6.7847e-09	3.4387e-08	1.629e-09	1.3252e-08	-4.9834e-08	-1.0151e-07	8.9641e-08	3.8169e-08	6.7301e-08	2.1321e-09	1.9755e-07	-2.5839e-08	-1.7213e-08	6.64e-08	8.8162e-09	3.4109e-08	1.7204e-08	5.1398e-08	6.2919e-08	2.1767e-08	5.4786e-08
4.009e-10	4.1919e-08	5.5634e-08	2.0574e-08	1.7922e-08	2.7434e-08	-5.1025e-09	6.6295e-09	-4.638e-08	-1.6917e-08	-1.1298e-08	-1.093e-07	5.1031e-09	2.44e-09	2.4555e-08	2.4066e-08	2.1559e-08	-2.5753e-08	-6.948e-08	-1.7202e-08	3.3074e-08	-7.7641e-09	3.1911e-08	-2.4566e-09	1.2098e-08	-5.1436e-08	-9.5902e-08	9.0201e-08	2.7312e-08	7.0734e-08	1.0755e-09	1.9645e-07	-2.6958e-08	-1.7937e-08	6.4489e-08	7.7157e-09	2.9157e-08	1.6477e-08	5.0932e-08	6.3097e-08	2.1861e-08	5.4142e-08
-6.6191e-10	3.8435e-08	5.3978e-08	2.3256e-08	2.0058e-08	2.6525e-08	-3.583e-09	1.0805e-08	-4.7109e-08	-9.6441e-09	-1.3175e-08	-1.1375e-07	5.997e-09	2.5337e-09	1.9465e-08	2.5224e-08	2.5871e-08	-2.2712e-08	-6.7183e-08	-1.6461e-08	2.8287e-08	-8.7631e-09	2.9253e-08	-6.4906e-09	1.091e-08	-5.3419e-08	-8.9991e-08	9.0377e-08	1.6646e-08	7.3802e-08	7.5752e-11	1.9386e-07	-2.8094e-08	-1.8637e-08	6.236e-08	6.5833e-09	2.3794e-08	1.5488e-08	5.0296e-08	6.3086e-08	2.1815e-08	5.3104e-08
-1.637e-09	3.4919e-08	5.2316e-08	2.5691e-08	2.2011e-08	2.5501e-08	-2.0831e-09	1.4977e-08	-4.7878e-08	-2.3881e-09	-1.5206e-08	-1.179e-07	6.7527e-09	2.5715e-09	1.3927e-08	2.6197e-08	3.0117e-08	-1.961e-08	-6.4688e-08	-1.5729e-08	2.3434e-08	-9.753e-09	2.6508e-08	-1.0421e-08	9.6944e-09	-5.5768e-08	-8.3806e-08	9.0151e-08	6.3271e-09	7.6493e-08	-8.5315e-10	1.8979e-07	-2.9238e-08	-1.9315e-08	6.0021e-08	5.433e-09	1.8117e-08	1.4239e-08	4.9465e-08	6.2833e-08	2.1635e-08	5.1692e-08
-2.5237e-09	3.1376e-08	5.0627e-08	2.785e-08	2.3764e-08	2.4389e-08	-6.285e-10	1.9134e-08	-4.8686e-08	4.8029e-09	-1.7354e-08	-1.2174e-07	7.3857e-09	2.5351e-09	8.0183e-09	2.6987e-08	3.4207e-08	-1.6488e-08	-6.2055e-08	-1.5014e-08	1.8574e-08	-1.0704e-08	2.3772e-08	-1.4198e-08	8.463e-09	-5.846e-08	-7.7374e-08	8.951e-08	-3.4978e-09	7.8799e-08	-1.6995e-09	1.843e-07	-3.0382e-08	-1.9975e-08	5.7477e-08	4.2789e-09	1.2224e-08	1.2739e-08	4.8417e-08	6.2287e-08	2.133e-08	4.993e-08
-3.3229e-09	2.781e-08	4.889e-08	2.9713e-08	2.5301e-08	2.3221e-08	7.606e-10	2.3261e-08	-4.9531e-08	1.1872e-08	-1.9582e-08	-1.2523e-07	7.9099e-09	2.4068e-09	1.8222e-09	2.7596e-08	3.8051e-08	-1.3387e-08	-5.9343e-08	-1.4322e-08	1.3765e-08	-1.1584e-08	2.1137e-08	-1.7775e-08	7.226e-09	-6.1463e-08	-7.0715e-08	8.8447e-08	-1.2693e-08	8.0718e-08	-2.4547e-09	1.7744e-07	-3.1515e-08	-2.0619e-08	5.4735e-08	3.1355e-09	6.2176e-09	1.0998e-08	4.7131e-08	6.1401e-08	2.0909e-08	4.785e-08
-4.0369e-09	2.4225e-08	4.7082e-08	3.1263e-08	2.6609e-08	2.2035e-08	2.0706e-09	2.7343e-08	-5.0408e-08	1.8756e-08	-2.1851e-08	-1.2835e-07	8.3366e-09	2.17e-09	-4.57e-09	2.8028e-08	4.1564e-08	-1.0347e-08	-5.6605e-08	-1.3662e-08	9.0677e-09	-1.2364e-08	1.8694e-08	-2.1112e-08	5.9947e-09	-6.4739e-08	-6.3848e-08	8.6961e-08	-2.1137e-08	8.2249e-08	-3.1132e-09	1.693e-07	-3.2627e-08	-2.1251e-08	5.1802e-08	2.017e-09	1.9748e-10	9.0299e-09	4.5592e-08	6.0134e-08	2.0381e-08	4.5487e-08
-4.6696e-09	2.0623e-08	4.5178e-08	3.249e-08	2.7675e-08	2.0872e-08	3.2943e-09	3.1361e-08	-5.1312e-08	2.5392e-08	-2.4119e-08	-1.3107e-07	8.6739e-09	1.8101e-09	-1.1063e-08	2.8291e-08	4.4664e-08	-7.4067e-09	-5.3891e-08	-1.3038e-08	4.5398e-09	-1.3015e-08	1.6528e-08	-2.4172e-08	4.7808e-09	-6.8242e-08	-5.6783e-08	8.5058e-08	-2.8722e-08	8.3397e-08	-3.6737e-09	1.5997e-07	-3.3707e-08	-2.1874e-08	4.8685e-08	9.3726e-10	-5.7397e-09	6.8533e-09	4.3788e-08	5.8452e-08	1.9756e-08	4.2879e-08
-5.2269e-09	1.7005e-08	4.3152e-08	3.3391e-08	2.8486e-08	1.9775e-08	4.4311e-09	3.5297e-08	-5.2236e-08	3.1715e-08	-2.6345e-08	-1.3338e-07	8.9279e-09	1.3154e-09	-1.7558e-08	2.8394e-08	4.728e-08	-4.6016e-09	-5.1247e-08	-1.2457e-08	2.376e-10	-1.3509e-08	1.4722e-08	-2.6924e-08	3.5962e-09	-7.192e-08	-4.9529e-08	8.2752e-08	-3.536e-08	8.4172e-08	-4.1386e-09	1.4957e-07	-3.4744e-08	-2.249e-08	4.5393e-08	-9.0731e-11	-1.1504e-08	4.4878e-09	4.1712e-08	5.633e-08	1.9045e-08	4.0069e-08
-5.7163e-09	1.3374e-08	4.0979e-08	3.3965e-08	2.9034e-08	1.8789e-08	5.4863e-09	3.9131e-08	-5.3174e-08	3.767e-08	-2.8486e-08	-1.3524e-07	9.1032e-09	6.7714e-10	-2.3958e-08	2.8348e-08	4.9345e-08	-1.9647e-09	-4.8711e-08	-1.1922e-08	-3.7859e-09	-1.3821e-08	1.3351e-08	-2.9346e-08	2.4526e-09	-7.5719e-08	-4.2089e-08	8.006e-08	-4.0983e-08	8.4583e-08	-4.5142e-09	1.382e-07	-3.5725e-08	-2.3099e-08	4.1936e-08	-1.0553e-09	-1.7013e-08	1.9558e-09	3.9361e-08	5.3754e-08	1.8259e-08	3.71e-08
-6.148e-09	9.7279e-09	3.8633e-08	3.4218e-08	2.9311e-08	1.7958e-08	6.4703e-09	4.2843e-08	-5.4126e-08	4.321e-08	-3.0498e-08	-1.3664e-07	9.2046e-09	-1.0919e-10	-3.0167e-08	2.8164e-08	5.0804e-08	4.7485e-10	-4.6315e-08	-1.1437e-08	-7.4818e-09	-1.3929e-08	1.2485e-08	-3.142e-08	1.3615e-09	-7.9581e-08	-3.4465e-08	7.7008e-08	-4.5546e-08	8.4645e-08	-4.8104e-09	1.2602e-07	-3.6642e-08	-2.3704e-08	3.8325e-08	-1.9465e-09	-2.2195e-08	-7.1797e-10	3.6741e-08	5.072e-08	1.7407e-08	3.4014e-08
-6.5343e-09	6.0679e-09	3.609e-08	3.4162e-08	2.9312e-08	1.7325e-08	7.3978e-09	4.6412e-08	-5.509e-08	4.8297e-08	-3.2339e-08	-1.3756e-07	9.2368e-09	-1.0437e-09	-3.6096e-08	2.7856e-08	5.1613e-08	2.6924e-09	-4.4084e-08	-1.1007e-08	-1.0806e-08	-1.3818e-08	1.2185e-08	-3.3139e-08	3.3351e-10	-8.3446e-08	-2.666e-08	7.3626e-08	-4.9027e-08	8.4372e-08	-5.0402e-09	1.1314e-07	-3.7483e-08	-2.4305e-08	3.4573e-08	-2.7563e-09	-2.6989e-08	-3.5072e-09	3.3861e-08	4.7235e-08	1.6502e-08	3.0857e-08
-6.8897e-09	2.3925e-09	3.3326e-08	3.3808e-08	2.9037e-08	1.6928e-08	8.2868e-09	4.9817e-08	-5.6072e-08	5.2904e-08	-3.3966e-08	-1.38e-07	9.2052e-09	-2.1217e-09	-4.1665e-08	2.7438e-08	5.1737e-08	4.6678e-09	-4.2035e-08	-1.0634e-08	-1.3721e-08	-1.3475e-08	1.2502e-08	-3.4501e-08	-6.219e-10	-8.7254e-08	-1.8678e-08	6.9947e-08	-5.1428e-08	8.3781e-08	-5.2188e-09	9.9722e-08	-3.824e-08	-2.49e-08	3.0695e-08	-3.4787e-09	-3.1346e-08	-6.3837e-09	3.0735e-08	4.3317e-08	1.5553e-08	2.767e-08
-7.2309e-09	-1.3001e-09	3.032e-08	3.3173e-08	2.8488e-08	1.6801e-08	9.157e-09	5.3041e-08	-5.7079e-08	5.7016e-08	-3.5342e-08	-1.3795e-07	9.1157e-09	-3.334e-09	-4.6804e-08	2.6923e-08	5.1156e-08	6.3864e-09	-4.018e-08	-1.0321e-08	-1.6194e-08	-1.2893e-08	1.3475e-08	-3.5513e-08	-1.4964e-09	-9.0946e-08	-1.0528e-08	6.6009e-08	-5.2776e-08	8.2887e-08	-5.3628e-09	8.5911e-08	-3.8903e-08	-2.5487e-08	2.6708e-08	-4.1103e-09	-3.5228e-08	-9.3183e-09	2.7385e-08	3.8992e-08	1.4572e-08	2.4495e-08
-7.5765e-09	-5.0117e-09	2.7054e-08	3.2276e-08	2.7672e-08	1.6971e-08	1.0029e-08	5.6063e-08	-5.8121e-08	6.0627e-08	-3.6429e-08	-1.3742e-07	8.9754e-09	-4.6665e-09	-5.1461e-08	2.6328e-08	4.9857e-08	7.8386e-09	-3.8522e-08	-1.0072e-08	-1.8198e-08	-1.2071e-08	1.5132e-08	-3.6188e-08	-2.2831e-09	-9.4466e-08	-2.2268e-09	6.1853e-08	-5.312e-08	8.1707e-08	-5.4896e-09	7.1855e-08	-3.9467e-08	-2.6064e-08	2.2629e-08	-4.6498e-09	-3.8606e-08	-1.2281e-08	2.3835e-08	3.4295e-08	1.3567e-08	2.1371e-08
-7.9466e-09	-8.745e-09	2.3514e-08	3.1136e-08	2.6597e-08	1.7459e-08	1.0924e-08	5.8868e-08	-5.9209e-08	6.3739e-08	-3.7197e-08	-1.3643e-07	8.7924e-09	-6.1016e-09	-5.5603e-08	2.5668e-08	4.7844e-08	9.0208e-09	-3.7058e-08	-9.8881e-09	-1.9715e-08	-1.1013e-08	1.7483e-08	-3.6547e-08	-2.9763e-09	-9.776e-08	6.202e-09	5.7519e-08	-5.2535e-08	8.0255e-08	-5.6165e-09	5.7702e-08	-3.9923e-08	-2.6626e-08	1.8479e-08	-5.0979e-09	-4.1461e-08	-1.5242e-08	2.0116e-08	2.9268e-08	1.2549e-08	1.8333e-08
-8.3627e-09	-1.2503e-08	1.9688e-08	2.9772e-08	2.5277e-08	1.8278e-08	1.186e-08	6.1441e-08	-6.0352e-08	6.6366e-08	-3.7622e-08	-1.3502e-07	8.5758e-09	-7.6176e-09	-5.9214e-08	2.4959e-08	4.513e-08	9.9346e-09	-3.5778e-08	-9.7727e-09	-2.0728e-08	-9.7285e-09	2.0525e-08	-3.6616e-08	-3.5717e-09	-1.0078e-07	1.4724e-08	5.3052e-08	-5.1117e-08	7.8546e-08	-5.7598e-09	4.3592e-08	-4.0268e-08	-2.7168e-08	1.4278e-08	-5.4575e-09	-4.3782e-08	-1.8171e-08	1.6259e-08	2.396e-08	1.1525e-08	1.5416e-08
-8.847e-09	-1.6288e-08	1.5571e-08	2.8204e-08	2.3726e-08	1.9433e-08	1.2855e-08	6.3769e-08	-6.156e-08	6.8524e-08	-3.7687e-08	-1.3321e-07	8.335e-09	-9.1904e-09	-6.2299e-08	2.4217e-08	4.1739e-08	1.0587e-08	-3.4669e-08	-9.7278e-09	-2.1232e-08	-8.2339e-09	2.4237e-08	-3.6427e-08	-4.0661e-09	-1.0348e-07	2.3294e-08	4.8496e-08	-4.8985e-08	7.6591e-08	-5.9342e-09	2.966e-08	-4.0497e-08	-2.7683e-08	1.0049e-08	-5.7327e-09	-4.5563e-08	-2.1042e-08	1.23e-08	1.8421e-08	1.0504e-08	1.2649e-08
-9.4223e-09	-2.0104e-08	1.1163e-08	2.6449e-08	2.196e-08	2.0923e-08	1.3922e-08	6.5841e-08	-6.2837e-08	7.0237e-08	-3.7385e-08	-1.3106e-07	8.0793e-09	-1.0793e-08	-6.4881e-08	2.3457e-08	3.7706e-08	1.0989e-08	-3.371e-08	-9.7556e-09	-2.1225e-08	-6.549e-09	2.8584e-08	-3.6015e-08	-4.4578e-09	-1.0583e-07	3.1855e-08	4.3894e-08	-4.6271e-08	7.4402e-08	-6.1525e-09	1.6031e-08	-4.0606e-08	-2.8165e-08	5.8137e-09	-5.9294e-09	-4.6806e-08	-2.3826e-08	8.2736e-09	1.2707e-08	9.4942e-09	1.0056e-08
-1.0111e-08	-2.3955e-08	6.4657e-09	2.4526e-08	1.9997e-08	2.274e-08	1.5068e-08	6.7651e-08	-6.4186e-08	7.1534e-08	-3.6714e-08	-1.2861e-07	7.8184e-09	-1.2398e-08	-6.6998e-08	2.2692e-08	3.3078e-08	1.1156e-08	-3.2881e-08	-9.8578e-09	-2.0712e-08	-4.699e-09	3.3513e-08	-3.5421e-08	-4.7464e-09	-1.0777e-07	4.034e-08	3.9289e-08	-4.3126e-08	7.1987e-08	-6.4254e-09	2.8208e-09	-4.0594e-08	-2.8606e-08	1.5956e-09	-6.0543e-09	-4.7516e-08	-2.6501e-08	4.2162e-09	6.8745e-09	8.5009e-09	7.6588e-09
-1.0935e-08	-2.7843e-08	1.4885e-09	2.245e-08	1.7856e-08	2.4868e-08	1.6298e-08	6.9195e-08	-6.5603e-08	7.2447e-08	-3.5684e-08	-1.2593e-07	7.5622e-09	-1.3976e-08	-6.8705e-08	2.1937e-08	2.791e-08	1.1106e-08	-3.2156e-08	-1.0035e-08	-1.9704e-08	-2.7127e-09	3.8957e-08	-3.4687e-08	-4.9332e-09	-1.0929e-07	4.867e-08	3.4726e-08	-3.9708e-08	6.9354e-08	-6.7615e-09	-9.867e-09	-4.0461e-08	-2.8998e-08	-2.5836e-09	-6.1152e-09	-4.7703e-08	-2.904e-08	1.6181e-10	9.819e-10	7.5301e-09	5.4711e-09
-1.1916e-08	-3.1774e-08	-3.7572e-09	2.0235e-08	1.5558e-08	2.7287e-08	1.7609e-08	7.047e-08	-6.7083e-08	7.3007e-08	-3.4314e-08	-1.2307e-07	7.3216e-09	-1.5498e-08	-7.0064e-08	2.1201e-08	2.2265e-08	1.0859e-08	-3.1508e-08	-1.0289e-08	-1.8222e-08	-6.2262e-10	4.4836e-08	-3.3857e-08	-5.0214e-09	-1.1035e-07	5.6758e-08	3.0244e-08	-3.6175e-08	6.6509e-08	-7.1679e-09	-2.1938e-08	-4.0207e-08	-2.9336e-08	-6.7029e-09	-6.1204e-09	-4.7384e-08	-3.1424e-08	-3.8575e-09	-4.9128e-09	6.5866e-09	3.5022e-09
-1.3072e-08	-3.575e-08	-9.2559e-09	1.7893e-08	1.3125e-08	2.9971e-08	1.8994e-08	7.1479e-08	-6.8616e-08	7.3248e-08	-3.2629e-08	-1.2008e-07	7.1075e-09	-1.6936e-08	-7.1149e-08	2.0495e-08	1.6218e-08	1.0434e-08	-3.0912e-08	-1.0616e-08	-1.6291e-08	1.5364e-09	5.1058e-08	-3.2976e-08	-5.0161e-09	-1.1093e-07	6.4508e-08	2.5885e-08	-3.2687e-08	6.3457e-08	-7.6502e-09	-3.3308e-08	-3.9836e-08	-2.9611e-08	-1.0743e-08	-6.0786e-09	-4.6575e-08	-3.363e-08	-7.8118e-09	-1.0752e-08	5.674e-09	1.7556e-09
-1.442e-08	-3.9774e-08	-1.4989e-08	1.5435e-08	1.0579e-08	3.2892e-08	2.0437e-08	7.2226e-08	-7.0187e-08	7.3205e-08	-3.0662e-08	-1.1703e-07	6.9305e-09	-1.8265e-08	-7.2036e-08	1.9826e-08	9.8462e-09	9.8529e-09	-3.0343e-08	-1.1016e-08	-1.3942e-08	3.728e-09	5.7522e-08	-3.2085e-08	-4.9244e-09	-1.1102e-07	7.1819e-08	2.1684e-08	-2.9391e-08	6.0203e-08	-8.2128e-09	-4.3903e-08	-3.9351e-08	-2.9818e-08	-1.4687e-08	-5.9985e-09	-4.5301e-08	-3.5639e-08	-1.1674e-08	-1.6481e-08	4.7954e-09	2.288e-10
-1.5976e-08	-4.3851e-08	-2.0935e-08	1.2869e-08	7.9446e-09	3.6017e-08	2.1919e-08	7.2719e-08	-7.1779e-08	7.2912e-08	-2.8453e-08	-1.1397e-07	6.8e-09	-1.9463e-08	-7.2809e-08	1.92e-08	3.2365e-09	9.1339e-09	-2.9776e-08	-1.1484e-08	-1.1215e-08	5.9147e-09	6.4121e-08	-3.1226e-08	-4.7549e-09	-1.1061e-07	7.8587e-08	1.7678e-08	-2.6421e-08	5.6751e-08	-8.8593e-09	-5.3658e-08	-3.8759e-08	-2.9952e-08	-1.8519e-08	-5.8889e-09	-4.3585e-08	-3.7434e-08	-1.5419e-08	-2.2046e-08	3.9524e-09	-1.0865e-09
-1.7749e-08	-4.7982e-08	-2.707e-08	1.0202e-08	5.2471e-09	3.9311e-08	2.3418e-08	7.2969e-08	-7.3369e-08	7.2407e-08	-2.6046e-08	-1.1094e-07	6.7232e-09	-2.051e-08	-7.355e-08	1.862e-08	-3.5214e-09	8.295e-09	-2.9193e-08	-1.2015e-08	-8.1525e-09	8.0594e-09	7.0741e-08	-3.0434e-08	-4.5179e-09	-1.0969e-07	8.4708e-08	1.3899e-08	-2.3894e-08	5.3106e-08	-9.593e-09	-6.2515e-08	-3.8069e-08	-3.0008e-08	-2.2227e-08	-5.7585e-09	-4.1455e-08	-3.8999e-08	-1.9026e-08	-2.7397e-08	3.1456e-09	-2.2042e-09
-1.9749e-08	-5.2168e-08	-3.3369e-08	7.4367e-09	2.5109e-09	4.2736e-08	2.4906e-08	7.299e-08	-7.4933e-08	7.1729e-08	-2.3487e-08	-1.0799e-07	6.7049e-09	-2.139e-08	-7.434e-08	1.809e-08	-1.0335e-08	7.3518e-09	-2.8577e-08	-1.2602e-08	-4.8031e-09	1.0125e-08	7.727e-08	-2.9742e-08	-4.2249e-09	-1.0827e-07	9.0075e-08	1.0373e-08	-2.1903e-08	4.9275e-08	-1.0417e-08	-7.0426e-08	-3.7289e-08	-2.9984e-08	-2.5799e-08	-5.616e-09	-3.8938e-08	-4.0319e-08	-2.2473e-08	-3.249e-08	2.3737e-09	-3.1439e-09
-2.1978e-08	-5.6408e-08	-3.9804e-08	4.578e-09	-2.4015e-10	4.6255e-08	2.6352e-08	7.2797e-08	-7.6448e-08	7.0916e-08	-2.0826e-08	-1.0514e-07	6.7455e-09	-2.2094e-08	-7.5256e-08	1.7611e-08	-1.7111e-08	6.3174e-09	-2.7918e-08	-1.3237e-08	-1.2178e-09	1.2076e-08	8.3595e-08	-2.9178e-08	-3.8883e-09	-1.0637e-07	9.459e-08	7.1243e-09	-2.0519e-08	4.5265e-08	-1.1333e-08	-7.7348e-08	-3.6433e-08	-2.9878e-08	-2.9227e-08	-5.4703e-09	-3.6064e-08	-4.1384e-08	-2.5744e-08	-3.7282e-08	1.6335e-09	-3.9297e-09
-2.4436e-08	-6.07e-08	-4.6344e-08	1.6275e-09	-2.9836e-09	4.9825e-08	2.7726e-08	7.2409e-08	-7.7887e-08	7.0012e-08	-1.8108e-08	-1.0242e-07	6.8406e-09	-2.2612e-08	-7.6369e-08	1.7182e-08	-2.3758e-08	5.202e-09	-2.7211e-08	-1.391e-08	2.5503e-09	1.3879e-08	8.961e-08	-2.8761e-08	-3.5209e-09	-1.04e-07	9.8157e-08	4.1722e-09	-1.9788e-08	4.1085e-08	-1.2345e-08	-8.3246e-08	-3.5512e-08	-2.969e-08	-3.2505e-08	-5.3301e-09	-3.2862e-08	-4.2185e-08	-2.8821e-08	-4.1737e-08	9.1942e-10	-4.5899e-09
-2.7118e-08	-6.5041e-08	-5.296e-08	-1.4136e-09	-5.6991e-09	5.3405e-08	2.8998e-08	7.1845e-08	-7.9228e-08	6.9057e-08	-1.538e-08	-9.9858e-08	6.9801e-09	-2.2944e-08	-7.7741e-08	1.6803e-08	-3.0192e-08	4.0125e-09	-2.6457e-08	-1.4612e-08	6.4479e-09	1.5502e-08	9.5212e-08	-2.8506e-08	-3.1354e-09	-1.0118e-07	1.0069e-07	1.5301e-09	-1.9732e-08	3.6746e-08	-1.3455e-08	-8.8091e-08	-3.454e-08	-2.9421e-08	-3.5629e-08	-5.2042e-09	-2.9363e-08	-4.2717e-08	-3.169e-08	-4.5822e-08	2.2396e-10	-5.1555e-09
-3.0014e-08	-6.9424e-08	-5.9617e-08	-4.5447e-09	-8.3685e-09	5.6951e-08	3.0136e-08	7.1128e-08	-8.045e-08	6.8091e-08	-1.2682e-08	-9.7456e-08	7.1481e-09	-2.3088e-08	-7.9423e-08	1.6473e-08	-3.6332e-08	2.7528e-09	-2.5662e-08	-1.5332e-08	1.0423e-08	1.6916e-08	1.0031e-07	-2.8423e-08	-2.744e-09	-9.7932e-08	1.0212e-07	-7.933e-10	-2.0349e-08	3.2263e-08	-1.4666e-08	-9.1862e-08	-3.3531e-08	-2.9073e-08	-3.8594e-08	-5.1012e-09	-2.5599e-08	-4.2977e-08	-3.4341e-08	-4.9511e-08	-4.6204e-10	-5.6599e-09
-3.3111e-08	-7.3841e-08	-6.6284e-08	-7.7658e-09	-1.0976e-08	6.0419e-08	3.1113e-08	7.0282e-08	-8.1535e-08	6.7147e-08	-1.0049e-08	-9.5219e-08	7.324e-09	-2.3051e-08	-8.1453e-08	1.6192e-08	-4.2109e-08	1.4234e-09	-2.4839e-08	-1.6057e-08	1.4426e-08	1.8098e-08	1.0482e-07	-2.8512e-08	-2.358e-09	-9.4277e-08	1.024e-07	-2.7942e-09	-2.1616e-08	2.7652e-08	-1.5978e-08	-9.4545e-08	-3.25e-08	-2.865e-08	-4.14e-08	-5.0294e-09	-2.1602e-08	-4.2971e-08	-3.6765e-08	-5.278e-08	-1.1486e-09	-6.1368e-09
-3.639e-08	-7.8282e-08	-7.2927e-08	-1.1077e-08	-1.351e-08	6.3763e-08	3.1902e-08	6.9331e-08	-8.2465e-08	6.6256e-08	-7.5121e-09	-9.3143e-08	7.4832e-09	-2.2838e-08	-8.3855e-08	1.596e-08	-4.7461e-08	2.2263e-11	-2.4009e-08	-1.6777e-08	1.8412e-08	1.9026e-08	1.0867e-07	-2.8768e-08	-1.9874e-09	-9.0239e-08	1.0147e-07	-4.4731e-09	-2.349e-08	2.2933e-08	-1.7394e-08	-9.6141e-08	-3.1462e-08	-2.8158e-08	-4.4045e-08	-4.9966e-09	-1.7405e-08	-4.2706e-08	-3.8955e-08	-5.5612e-08	-1.8458e-09	-6.6197e-09
-3.983e-08	-8.2733e-08	-7.9514e-08	-1.4479e-08	-1.5959e-08	6.694e-08	3.2481e-08	6.8302e-08	-8.3225e-08	6.5436e-08	-5.0909e-09	-9.1218e-08	7.5994e-09	-2.2462e-08	-8.6639e-08	1.5777e-08	-5.2342e-08	-1.4552e-09	-2.3194e-08	-1.748e-08	2.234e-08	1.9683e-08	1.1181e-07	-2.9181e-08	-1.6402e-09	-8.5839e-08	9.9324e-08	-5.8347e-09	-2.5911e-08	1.8129e-08	-1.8914e-08	-9.6657e-08	-3.043e-08	-2.7601e-08	-4.6529e-08	-5.0102e-09	-1.3042e-08	-4.2197e-08	-4.0907e-08	-5.7992e-08	-2.5632e-09	-7.1407e-09
-4.3405e-08	-8.7178e-08	-8.6015e-08	-1.797e-08	-1.8316e-08	6.9907e-08	3.283e-08	6.722e-08	-8.3798e-08	6.47e-08	-2.7984e-09	-8.9429e-08	7.6449e-09	-2.1933e-08	-8.9799e-08	1.5644e-08	-5.6713e-08	-3.0152e-09	-2.2426e-08	-1.8155e-08	2.6175e-08	2.0058e-08	1.1418e-07	-2.9734e-08	-1.3227e-09	-8.11e-08	9.596e-08	-6.8874e-09	-2.8806e-08	1.3264e-08	-2.0535e-08	-9.6115e-08	-2.9417e-08	-2.6988e-08	-4.8851e-08	-5.0765e-09	-8.544e-09	-4.1463e-08	-4.2621e-08	-5.9911e-08	-3.3089e-09	-7.729e-09
-4.7085e-08	-9.1599e-08	-9.2399e-08	-2.155e-08	-2.0576e-08	7.2623e-08	3.2934e-08	6.6112e-08	-8.417e-08	6.4047e-08	-6.3887e-10	-8.7756e-08	7.5931e-09	-2.1268e-08	-9.3316e-08	1.5564e-08	-6.0553e-08	-4.6653e-09	-2.1737e-08	-1.8791e-08	2.9885e-08	2.0141e-08	1.1575e-07	-3.0407e-08	-1.0391e-09	-7.6039e-08	9.1398e-08	-7.643e-09	-3.2092e-08	8.3662e-09	-2.2253e-08	-9.4548e-08	-2.8436e-08	-2.6324e-08	-5.1012e-08	-5.2012e-09	-3.9426e-09	-4.053e-08	-4.4097e-08	-6.1365e-08	-4.0894e-09	-8.4103e-09
-5.0841e-08	-9.5979e-08	-9.864e-08	-2.5217e-08	-2.2738e-08	7.5052e-08	3.2783e-08	6.5002e-08	-8.4327e-08	6.3467e-08	1.3922e-09	-8.6175e-08	7.4186e-09	-2.0481e-08	-9.7155e-08	1.554e-08	-6.3851e-08	-6.4135e-09	-2.1163e-08	-1.9376e-08	3.3446e-08	1.9929e-08	1.165e-07	-3.1173e-08	-7.9136e-10	-7.0676e-08	8.5682e-08	-8.1163e-09	-3.5678e-08	3.4656e-09	-2.4061e-08	-9.2001e-08	-2.7498e-08	-2.5617e-08	-5.3008e-08	-5.3886e-09	7.342e-10	-3.943e-08	-4.5336e-08	-6.2353e-08	-4.9093e-09	-9.2062e-09
-5.4636e-08	-1.0029e-07	-1.0471e-07	-2.8966e-08	-2.4798e-08	7.716e-08	3.2369e-08	6.3917e-08	-8.4257e-08	6.2938e-08	3.3073e-09	-8.466e-08	7.0987e-09	-1.9589e-08	-1.0127e-07	1.5577e-08	-6.6608e-08	-8.2674e-09	-2.074e-08	-1.99e-08	3.6834e-08	1.9422e-08	1.1644e-07	-3.2006e-08	-5.7946e-10	-6.503e-08	7.8872e-08	-8.3248e-09	-3.9469e-08	-1.407e-09	-2.5949e-08	-8.8527e-08	-2.6611e-08	-2.4877e-08	-5.4837e-08	-5.642e-09	5.4608e-09	-3.8199e-08	-4.634e-08	-6.2882e-08	-5.7709e-09	-1.0133e-08
-5.8435e-08	-1.0453e-07	-1.1059e-07	-3.279e-08	-2.6759e-08	7.892e-08	3.1693e-08	6.2879e-08	-8.395e-08	6.2428e-08	5.126e-09	-8.3184e-08	6.6134e-09	-1.8607e-08	-1.0562e-07	1.568e-08	-6.8837e-08	-1.0234e-08	-2.0507e-08	-2.0349e-08	4.0034e-08	1.8622e-08	1.1558e-07	-3.2874e-08	-4.0105e-10	-5.9123e-08	7.1047e-08	-8.288e-09	-4.3368e-08	-6.2193e-09	-2.7904e-08	-8.4192e-08	-2.5783e-08	-2.4112e-08	-5.6497e-08	-5.9628e-09	1.0214e-08	-3.688e-08	-4.7113e-08	-6.2961e-08	-6.6746e-09	-1.1203e-08
-6.2203e-08	-1.0865e-07	-1.1626e-07	-3.6677e-08	-2.8619e-08	8.0309e-08	3.0758e-08	6.1908e-08	-8.3401e-08	6.1895e-08	6.8739e-09	-8.1721e-08	5.9467e-09	-1.7551e-08	-1.1013e-07	1.5857e-08	-7.0558e-08	-1.2317e-08	-2.0497e-08	-2.0712e-08	4.3032e-08	1.7537e-08	1.1395e-07	-3.3746e-08	-2.515e-10	-5.2977e-08	6.2303e-08	-8.0273e-09	-4.728e-08	-1.0939e-08	-2.9909e-08	-7.9066e-08	-2.502e-08	-2.3328e-08	-5.7981e-08	-6.351e-09	1.4972e-08	-3.5517e-08	-4.7657e-08	-6.2603e-08	-7.6181e-09	-1.2423e-08
-6.59e-08	-1.1266e-07	-1.2171e-07	-4.0616e-08	-3.0379e-08	8.1308e-08	2.9573e-08	6.1025e-08	-8.2608e-08	6.1288e-08	8.5811e-09	-8.0248e-08	5.0868e-09	-1.6433e-08	-1.1474e-07	1.6114e-08	-7.1801e-08	-1.452e-08	-2.0743e-08	-2.0977e-08	4.5818e-08	1.6178e-08	1.116e-07	-3.4587e-08	-1.2379e-10	-4.662e-08	5.2746e-08	-7.5653e-09	-5.1114e-08	-1.5534e-08	-3.1945e-08	-7.3228e-08	-2.4325e-08	-2.2535e-08	-5.9285e-08	-6.8047e-09	1.9717e-08	-3.4159e-08	-4.7976e-08	-6.1829e-08	-8.5965e-09	-1.3792e-08
-6.9491e-08	-1.1651e-07	-1.269e-07	-4.4589e-08	-3.2038e-08	8.1907e-08	2.8153e-08	6.0243e-08	-8.1574e-08	6.0551e-08	1.0281e-08	-7.8741e-08	4.0273e-09	-1.5268e-08	-1.1939e-07	1.6458e-08	-7.2597e-08	-1.684e-08	-2.1272e-08	-2.113e-08	4.8387e-08	1.4557e-08	1.086e-07	-3.5365e-08	-8.5668e-12	-4.0082e-08	4.2497e-08	-6.9252e-09	-5.4788e-08	-1.9972e-08	-3.3988e-08	-6.6761e-08	-2.37e-08	-2.1738e-08	-6.0399e-08	-7.3206e-09	2.4431e-08	-3.2851e-08	-4.8072e-08	-6.0661e-08	-9.6016e-09	-1.5307e-08
-7.2938e-08	-1.202e-07	-1.3185e-07	-4.8575e-08	-3.3595e-08	8.21e-08	2.6516e-08	5.9577e-08	-8.0304e-08	5.9619e-08	1.2007e-08	-7.718e-08	2.7673e-09	-1.4065e-08	-1.2402e-07	1.6897e-08	-7.2983e-08	-1.9275e-08	-2.2108e-08	-2.116e-08	5.0737e-08	1.2691e-08	1.0504e-07	-3.6046e-08	1.0586e-10	-3.3397e-08	3.1683e-08	-6.1305e-09	-5.8228e-08	-2.4225e-08	-3.6013e-08	-5.9752e-08	-2.3146e-08	-2.0946e-08	-6.1316e-08	-7.894e-09	2.9099e-08	-3.1642e-08	-4.7949e-08	-5.9125e-08	-1.0622e-08	-1.696e-08
-7.6207e-08	-1.237e-07	-1.3652e-07	-5.2553e-08	-3.5045e-08	8.1885e-08	2.4684e-08	5.9035e-08	-7.8808e-08	5.8426e-08	1.3794e-08	-7.5545e-08	1.3112e-09	-1.2837e-08	-1.2855e-07	1.7438e-08	-7.2998e-08	-2.1815e-08	-2.3264e-08	-2.1055e-08	5.2867e-08	1.06e-08	1.0102e-07	-3.6597e-08	2.3333e-10	-2.6601e-08	2.0439e-08	-5.2043e-09	-6.137e-08	-2.8264e-08	-3.7992e-08	-5.2295e-08	-2.2661e-08	-2.0163e-08	-6.2028e-08	-8.5193e-09	3.3706e-08	-3.0574e-08	-4.7607e-08	-5.7252e-08	-1.1645e-08	-1.8738e-08
-7.9264e-08	-1.2699e-07	-1.4092e-07	-5.6496e-08	-3.6386e-08	8.1268e-08	2.2682e-08	5.8622e-08	-7.7096e-08	5.6907e-08	1.5676e-08	-7.3822e-08	-3.3143e-10	-1.1592e-08	-1.3294e-07	1.8086e-08	-7.268e-08	-2.4446e-08	-2.4751e-08	-2.0804e-08	5.4784e-08	8.3046e-09	9.6648e-08	-3.6988e-08	3.8949e-10	-1.9734e-08	8.9042e-09	-4.169e-09	-6.4162e-08	-3.2065e-08	-3.9897e-08	-4.4485e-08	-2.2243e-08	-1.9396e-08	-6.2526e-08	-9.1903e-09	3.8239e-08	-2.9689e-08	-4.705e-08	-5.5077e-08	-1.2651e-08	-2.0622e-08
-8.2076e-08	-1.3007e-07	-1.4505e-07	-6.0379e-08	-3.7611e-08	8.0258e-08	2.0538e-08	5.8343e-08	-7.5181e-08	5.5002e-08	1.7682e-08	-7.1997e-08	-2.1467e-09	-1.0341e-08	-1.3712e-07	1.8846e-08	-7.2068e-08	-2.7153e-08	-2.6568e-08	-2.0399e-08	5.6492e-08	5.8306e-09	9.2044e-08	-3.7189e-08	5.911e-10	-1.2834e-08	-2.7766e-09	-3.0468e-09	-6.6561e-08	-3.5606e-08	-4.1696e-08	-3.6422e-08	-2.1888e-08	-1.8648e-08	-6.2801e-08	-9.9003e-09	4.2682e-08	-2.9022e-08	-4.6278e-08	-5.2637e-08	-1.3623e-08	-2.2595e-08
-8.4616e-08	-1.329e-07	-1.4889e-07	-6.4172e-08	-3.8712e-08	7.8869e-08	1.8281e-08	5.8194e-08	-7.3077e-08	5.2658e-08	1.984e-08	-7.0063e-08	-4.1168e-09	-9.0925e-09	-1.4106e-07	1.972e-08	-7.1198e-08	-2.9912e-08	-2.8708e-08	-1.9832e-08	5.7999e-08	3.2042e-09	8.7335e-08	-3.7176e-08	8.5535e-10	-5.9426e-09	-1.4459e-08	-1.8585e-09	-6.8537e-08	-3.887e-08	-4.3359e-08	-2.8208e-08	-2.159e-08	-1.7924e-08	-6.2845e-08	-1.0643e-08	4.7018e-08	-2.8603e-08	-4.5295e-08	-4.9971e-08	-1.4538e-08	-2.4632e-08
-8.6857e-08	-1.3548e-07	-1.5244e-07	-6.7846e-08	-3.9682e-08	7.7118e-08	1.5942e-08	5.8172e-08	-7.0797e-08	4.9834e-08	2.2172e-08	-6.8019e-08	-6.2207e-09	-7.8563e-09	-1.447e-07	2.0709e-08	-7.0104e-08	-3.2698e-08	-3.1155e-08	-1.9096e-08	5.9315e-08	4.5419e-10	8.2644e-08	-3.6925e-08	1.199e-09	9.0046e-10	-2.6e-08	-6.2432e-10	-7.0066e-08	-4.1841e-08	-4.4858e-08	-1.9949e-08	-2.1345e-08	-1.7228e-08	-6.2652e-08	-1.1411e-08	5.1225e-08	-2.8455e-08	-4.4102e-08	-4.712e-08	-1.5375e-08	-2.6711e-08
-8.8773e-08	-1.3779e-07	-1.557e-07	-7.1372e-08	-4.051e-08	7.5028e-08	1.3555e-08	5.827e-08	-6.8355e-08	4.6505e-08	2.4695e-08	-6.5867e-08	-8.4352e-09	-6.6418e-09	-1.4802e-07	2.1812e-08	-6.8822e-08	-3.548e-08	-3.3884e-08	-1.8188e-08	6.0448e-08	-2.3888e-09	7.8093e-08	-3.6421e-08	1.6376e-09	7.6563e-09	-3.7259e-08	6.3702e-10	-7.1135e-08	-4.451e-08	-4.6163e-08	-1.1752e-08	-2.1147e-08	-1.6564e-08	-6.2215e-08	-1.22e-08	5.5278e-08	-2.8593e-08	-4.2705e-08	-4.4123e-08	-1.6109e-08	-2.8805e-08
-9.0347e-08	-1.3982e-07	-1.5868e-07	-7.4722e-08	-4.1188e-08	7.2625e-08	1.1154e-08	5.8479e-08	-6.5764e-08	4.2653e-08	2.7419e-08	-6.3615e-08	-1.0736e-08	-5.4591e-09	-1.5098e-07	2.3026e-08	-6.7382e-08	-3.8226e-08	-3.6861e-08	-1.7106e-08	6.1408e-08	-5.2922e-09	7.3795e-08	-3.5649e-08	2.185e-09	1.4288e-08	-4.8105e-08	1.908e-09	-7.1736e-08	-4.6869e-08	-4.7251e-08	-3.7278e-09	-2.0989e-08	-1.5934e-08	-6.1531e-08	-1.3004e-08	5.9147e-08	-2.9026e-08	-4.111e-08	-4.1023e-08	-1.6718e-08	-3.089e-08
-9.156e-08	-1.4157e-07	-1.6138e-07	-7.7866e-08	-4.1703e-08	6.9937e-08	8.7716e-09	5.8786e-08	-6.304e-08	3.8274e-08	3.0347e-08	-6.1276e-08	-1.3096e-08	-4.318e-09	-1.5357e-07	2.4344e-08	-6.5815e-08	-4.0898e-08	-4.0047e-08	-1.5853e-08	6.2202e-08	-8.2219e-09	6.9853e-08	-3.4603e-08	2.8527e-09	2.0761e-08	-5.8413e-08	3.1726e-09	-7.1868e-08	-4.8916e-08	-4.8097e-08	4.0143e-09	-2.0865e-08	-1.5342e-08	-6.0597e-08	-1.3818e-08	6.2801e-08	-2.9755e-08	-3.9327e-08	-3.7857e-08	-1.7179e-08	-3.294e-08
-9.2402e-08	-1.4302e-07	-1.6379e-07	-8.0779e-08	-4.2045e-08	6.6997e-08	6.4422e-09	5.9179e-08	-6.0197e-08	3.3375e-08	3.3472e-08	-5.8868e-08	-1.549e-08	-3.2289e-09	-1.5576e-07	2.576e-08	-6.4151e-08	-4.3458e-08	-4.3391e-08	-1.4431e-08	6.2837e-08	-1.1143e-08	6.6355e-08	-3.3282e-08	3.6497e-09	2.7046e-08	-6.8071e-08	4.4161e-09	-7.1534e-08	-5.0651e-08	-4.8684e-08	1.1365e-08	-2.077e-08	-1.479e-08	-5.9413e-08	-1.4639e-08	6.6204e-08	-3.0776e-08	-3.7373e-08	-3.4664e-08	-1.7473e-08	-3.4932e-08
-9.2863e-08	-1.4417e-07	-1.6591e-07	-8.3434e-08	-4.2204e-08	6.384e-08	4.1985e-09	5.9643e-08	-5.7252e-08	2.7967e-08	3.6782e-08	-5.6413e-08	-1.7888e-08	-2.2015e-09	-1.5754e-07	2.7262e-08	-6.2417e-08	-4.5865e-08	-4.6841e-08	-1.2848e-08	6.3317e-08	-1.4019e-08	6.3372e-08	-3.1689e-08	4.5822e-09	3.3113e-08	-7.6979e-08	5.6249e-09	-7.0738e-08	-5.2077e-08	-4.8996e-08	1.8221e-08	-2.0697e-08	-1.428e-08	-5.7983e-08	-1.5464e-08	6.9318e-08	-3.208e-08	-3.5267e-08	-3.148e-08	-1.7582e-08	-3.6843e-08
-9.294e-08	-1.4502e-07	-1.6776e-07	-8.581e-08	-4.2169e-08	6.0503e-08	2.0724e-09	6.0163e-08	-5.4221e-08	2.2071e-08	4.0254e-08	-5.3935e-08	-2.0262e-08	-1.2456e-09	-1.5891e-07	2.8836e-08	-6.064e-08	-4.8077e-08	-5.0338e-08	-1.1115e-08	6.3644e-08	-1.6814e-08	6.0963e-08	-2.9834e-08	5.6531e-09	3.894e-08	-8.5052e-08	6.7863e-09	-6.9487e-08	-5.3201e-08	-4.9023e-08	2.4483e-08	-2.0642e-08	-1.3815e-08	-5.6313e-08	-1.6291e-08	7.2101e-08	-3.365e-08	-3.3034e-08	-2.8337e-08	-1.7491e-08	-3.8653e-08
-9.2633e-08	-1.4557e-07	-1.6934e-07	-8.7884e-08	-4.193e-08	5.7028e-08	9.396e-11	6.0724e-08	-5.1123e-08	1.5708e-08	4.3858e-08	-5.1457e-08	-2.2579e-08	-3.7012e-10	-1.5985e-07	3.0468e-08	-5.8843e-08	-5.0055e-08	-5.3822e-08	-9.245e-09	6.3817e-08	-1.9493e-08	5.9164e-08	-2.7733e-08	6.8625e-09	4.4502e-08	-9.2221e-08	7.8881e-09	-6.7787e-08	-5.4029e-08	-4.8757e-08	3.0064e-08	-2.0602e-08	-1.3398e-08	-5.4412e-08	-1.7121e-08	7.4513e-08	-3.5468e-08	-3.0703e-08	-2.5265e-08	-1.7189e-08	-4.0342e-08
-9.1949e-08	-1.4582e-07	-1.7064e-07	-8.9639e-08	-4.1477e-08	5.3454e-08	-1.7087e-09	6.1311e-08	-4.7977e-08	8.904e-09	4.7557e-08	-4.9e-08	-2.4805e-08	4.1702e-10	-1.6035e-07	3.2138e-08	-5.7047e-08	-5.1758e-08	-5.7233e-08	-7.2555e-09	6.3832e-08	-2.2021e-08	5.7997e-08	-2.5406e-08	8.2075e-09	4.9781e-08	-9.8428e-08	8.9185e-09	-6.5642e-08	-5.4573e-08	-4.8196e-08	3.4887e-08	-2.0573e-08	-1.3028e-08	-5.2294e-08	-1.7951e-08	7.6512e-08	-3.7513e-08	-2.8303e-08	-2.2293e-08	-1.6666e-08	-4.1893e-08
-9.0895e-08	-1.4578e-07	-1.7169e-07	-9.1058e-08	-4.0801e-08	4.9824e-08	-3.3102e-09	6.191e-08	-4.4802e-08	1.683e-09	5.1308e-08	-4.6584e-08	-2.6908e-08	1.1091e-09	-1.604e-07	3.3825e-08	-5.5271e-08	-5.3151e-08	-6.051e-08	-5.167e-09	6.3685e-08	-2.4365e-08	5.7466e-08	-2.2877e-08	9.6824e-09	5.4755e-08	-1.0363e-07	9.866e-09	-6.3053e-08	-5.4845e-08	-4.7342e-08	3.8891e-08	-2.0554e-08	-1.2709e-08	-4.9976e-08	-1.8784e-08	7.8055e-08	-3.976e-08	-2.5868e-08	-1.9446e-08	-1.5916e-08	-4.329e-08
-8.9485e-08	-1.4545e-07	-1.7247e-07	-9.213e-08	-3.9894e-08	4.6178e-08	-4.6876e-09	6.2506e-08	-4.1616e-08	-5.9305e-09	5.5062e-08	-4.422e-08	-2.8851e-08	1.7012e-09	-1.5999e-07	3.5505e-08	-5.3528e-08	-5.42e-08	-6.3597e-08	-3.003e-09	6.3366e-08	-2.6496e-08	5.7557e-08	-2.0174e-08	1.1279e-08	5.9408e-08	-1.0781e-07	1.072e-08	-6.002e-08	-5.4858e-08	-4.62e-08	4.2026e-08	-2.0544e-08	-1.2439e-08	-4.7479e-08	-1.9619e-08	7.9103e-08	-4.2183e-08	-2.3427e-08	-1.6746e-08	-1.4937e-08	-4.452e-08
-8.7736e-08	-1.4485e-07	-1.7299e-07	-9.2844e-08	-3.8748e-08	4.2559e-08	-5.8216e-09	6.3088e-08	-3.844e-08	-1.3914e-08	5.8768e-08	-4.1916e-08	-3.0598e-08	2.1902e-09	-1.5911e-07	3.7152e-08	-5.183e-08	-5.4878e-08	-6.6443e-08	-7.8992e-10	6.2864e-08	-2.8386e-08	5.824e-08	-1.7331e-08	1.2987e-08	6.3721e-08	-1.1094e-07	1.1469e-08	-5.6538e-08	-5.4628e-08	-4.4783e-08	4.4259e-08	-2.0544e-08	-1.2221e-08	-4.4825e-08	-2.0459e-08	7.9616e-08	-4.4758e-08	-2.101e-08	-1.4215e-08	-1.3727e-08	-4.5572e-08
-8.5668e-08	-1.4397e-07	-1.7327e-07	-9.3192e-08	-3.7359e-08	3.9005e-08	-6.696e-09	6.3644e-08	-3.5294e-08	-2.2244e-08	6.2372e-08	-3.9674e-08	-3.2111e-08	2.5752e-09	-1.5774e-07	3.8737e-08	-5.0185e-08	-5.5162e-08	-6.9e-08	1.4434e-09	6.2166e-08	-3.0011e-08	5.9467e-08	-1.4382e-08	1.4792e-08	6.7678e-08	-1.1302e-07	1.2105e-08	-5.2603e-08	-5.4173e-08	-4.3106e-08	4.5572e-08	-2.0554e-08	-1.2055e-08	-4.2041e-08	-2.1303e-08	7.9558e-08	-4.7457e-08	-1.8645e-08	-1.1874e-08	-1.2287e-08	-4.6435e-08
-8.3307e-08	-1.4285e-07	-1.7331e-07	-9.3171e-08	-3.5723e-08	3.5553e-08	-7.2981e-09	6.4163e-08	-3.22e-08	-3.0899e-08	6.5819e-08	-3.7488e-08	-3.3351e-08	2.8573e-09	-1.5586e-07	4.0232e-08	-4.8597e-08	-5.5035e-08	-7.1226e-08	3.666e-09	6.1257e-08	-3.1353e-08	6.1179e-08	-1.1364e-08	1.6681e-08	7.1263e-08	-1.1407e-07	1.262e-08	-4.8212e-08	-5.351e-08	-4.1192e-08	4.5958e-08	-2.0578e-08	-1.1939e-08	-3.9156e-08	-2.2155e-08	7.8897e-08	-5.0254e-08	-1.6357e-08	-9.7394e-09	-1.0621e-08	-4.7105e-08
-8.0679e-08	-1.4148e-07	-1.7311e-07	-9.2779e-08	-3.3838e-08	3.2241e-08	-7.6192e-09	6.4636e-08	-2.9178e-08	-3.9856e-08	6.9054e-08	-3.5345e-08	-3.428e-08	3.0392e-09	-1.5345e-07	4.1607e-08	-4.7065e-08	-5.4488e-08	-7.3087e-08	5.8457e-09	6.0123e-08	-3.2398e-08	6.3302e-08	-8.3175e-09	1.8634e-08	7.446e-08	-1.141e-07	1.3008e-08	-4.3365e-08	-5.2659e-08	-3.9065e-08	4.5425e-08	-2.0619e-08	-1.1873e-08	-3.6201e-08	-2.3015e-08	7.7606e-08	-5.3124e-08	-1.417e-08	-7.8271e-09	-8.7339e-09	-4.7577e-08
-7.7816e-08	-1.3988e-07	-1.7268e-07	-9.2017e-08	-3.1704e-08	2.9099e-08	-7.6545e-09	6.5056e-08	-2.6251e-08	-4.9087e-08	7.2026e-08	-3.3229e-08	-3.4858e-08	3.1247e-09	-1.5049e-07	4.2831e-08	-4.5587e-08	-5.3519e-08	-7.4554e-08	7.9491e-09	5.8748e-08	-3.3137e-08	6.5749e-08	-5.2819e-09	2.0633e-08	7.7255e-08	-1.1315e-07	1.3267e-08	-3.8064e-08	-5.1643e-08	-3.6758e-08	4.3991e-08	-2.068e-08	-1.1857e-08	-3.3209e-08	-2.3885e-08	7.5664e-08	-5.6043e-08	-1.2102e-08	-6.1492e-09	-6.6365e-09	-4.7849e-08
-7.4751e-08	-1.3807e-07	-1.7202e-07	-9.0889e-08	-2.9323e-08	2.6159e-08	-7.4034e-09	6.5416e-08	-2.344e-08	-5.8562e-08	7.4686e-08	-3.1117e-08	-3.5048e-08	3.1181e-09	-1.4696e-07	4.3872e-08	-4.4158e-08	-5.2132e-08	-7.5605e-08	9.9431e-09	5.7118e-08	-3.3568e-08	6.8427e-08	-2.2984e-09	2.2656e-08	7.9634e-08	-1.1124e-07	1.3395e-08	-3.232e-08	-5.0484e-08	-3.4306e-08	4.1683e-08	-2.0764e-08	-1.1888e-08	-3.0213e-08	-2.4766e-08	7.3055e-08	-5.8986e-08	-1.0172e-08	-4.7149e-09	-4.3424e-09	-4.7924e-08
-7.1521e-08	-1.3607e-07	-1.7115e-07	-8.9402e-08	-2.67e-08	2.3447e-08	-6.8696e-09	6.571e-08	-2.0765e-08	-6.8245e-08	7.6987e-08	-2.8982e-08	-3.4818e-08	3.0242e-09	-1.4283e-07	4.4702e-08	-4.2768e-08	-5.0339e-08	-7.6221e-08	1.1795e-08	5.5221e-08	-3.3692e-08	7.1233e-08	5.921e-10	2.4678e-08	8.1586e-08	-1.0844e-07	1.3392e-08	-2.6153e-08	-4.9206e-08	-3.1745e-08	3.8539e-08	-2.0876e-08	-1.1966e-08	-2.7248e-08	-2.5657e-08	6.9774e-08	-6.1932e-08	-8.3939e-09	-3.5314e-09	-1.8695e-09	-4.7805e-08
-6.8165e-08	-1.3389e-07	-1.7006e-07	-8.7567e-08	-2.3841e-08	2.0983e-08	-6.0616e-09	6.5935e-08	-1.8245e-08	-7.8096e-08	7.889e-08	-2.6798e-08	-3.4139e-08	2.8476e-09	-1.3809e-07	4.5291e-08	-4.1406e-08	-4.8158e-08	-7.6392e-08	1.3474e-08	5.305e-08	-3.3518e-08	7.4061e-08	3.3493e-09	2.6673e-08	8.3105e-08	-1.048e-07	1.3262e-08	-1.9592e-08	-4.7835e-08	-2.9116e-08	3.4609e-08	-2.1018e-08	-1.2088e-08	-2.4349e-08	-2.656e-08	6.5822e-08	-6.4856e-08	-6.7779e-09	-2.604e-09	7.5982e-10	-4.7498e-08
-6.4724e-08	-1.3155e-07	-1.6877e-07	-8.5397e-08	-2.0755e-08	1.8786e-08	-4.9923e-09	6.6088e-08	-1.5893e-08	-8.8069e-08	8.036e-08	-2.4535e-08	-3.2991e-08	2.593e-09	-1.3273e-07	4.5611e-08	-4.0057e-08	-4.5612e-08	-7.6111e-08	1.4952e-08	5.0597e-08	-3.3061e-08	7.6803e-08	5.9344e-09	2.8611e-08	8.4185e-08	-1.0039e-07	1.301e-08	-1.2677e-08	-4.6397e-08	-2.646e-08	2.9949e-08	-2.1194e-08	-1.2251e-08	-2.1549e-08	-2.7474e-08	6.1209e-08	-6.774e-08	-5.3337e-09	-1.9365e-09	3.5186e-09	-4.7011e-08
